channel1,channel2,channel3
0.018238503816576625,0.05250348275153399,0.059769304937896624
0.05283962930042733,0.08836918575527766,0.0758632486324587
0.08521571208893741,0.11177955385637948,0.0881973945134004
0.08667397084003757,0.10679741989532275,0.08395685919307665
0.07669208699447874,0.09298332118511998,0.07033835489870356
0.07854743028813199,0.0873996511634243,0.06731760131180627
0.08151871807206376,0.08156121292781093,0.08016118544612018
0.06998272748237472,0.06720219331561758,0.09463353695389179
0.04602757551007682,0.04613427740359214,0.08823327044673647
0.021627414998710796,0.023332522257960314,0.05608125899094838
0.0025262792448636543,0.0018116850767479044,0.01756485696134105
-0.014164964112799189,-0.01864761787980753,-0.011049787467510301
-0.028603779634255682,-0.03474755362043832,-0.027789497962121684
-0.036511239059235416,-0.04181737155665378,-0.0345843997359738
-0.03534737057244186,-0.039588149684874126,-0.03385253069591792
-0.021552105861330037,-0.026991276885611357,-0.025328408935267117
0.006524509811260332,-0.004090445212344878,-0.007648748987250637
0.03814750122596282,0.019489768364702065,0.012391547374279409
0.059254598548224735,0.03372140386993658,0.026727570335373943
0.06699090084279365,0.04022507021966831,0.03678000685614143
0.06252027659646311,0.04406782411292656,0.04383321535001326
0.04454877790332736,0.04108845138905599,0.04018822052306831
0.021805418414338043,0.028477424800131122,0.02504140146857854
0.015007057194420406,0.018867001619569973,0.01111436414751523
0.03110952002347004,0.02158452923469183,0.004764323947030415
0.04963556781913683,0.027373429206487866,0.0037813233736220314
0.055810917084359105,0.0299352651353267,0.010640801827479075
0.05873428087177585,0.03493862978087658,0.0241803790685128
0.05927513740387403,0.04079829870098308,0.0326542745224931
0.04290566945138353,0.03716785165265622,0.030939404909028842
0.00613427155392367,0.022384218350600085,0.027645994228777396
-0.032773167331063176,0.008853195433639173,0.03273320157583246
-0.04810884621587235,0.01187502952649603,0.05131693504391797
-0.02936371729327971,0.03706169823019053,0.08202673397959595
0.0140417309789034,0.07807230377610501,0.11897894531575053
0.06281466686076972,0.12221089683734203,0.15690698203864628
0.10103063093889687,0.15667537466453849,0.18855673042772936
0.124657161220806,0.17263377250854836,0.20333043977552395
0.13934928929527052,0.17204639023757148,0.1964135598283292
0.1537470271054284,0.1693996315707601,0.1768396506001681
0.1639342995074802,0.17026301274014777,0.1553786672785296
0.14850961891485742,0.15588983933829234,0.1277326730497522
0.09543721591707138,0.10855956670825333,0.08536319577985069
0.0229692869011316,0.04087614454412459,0.03293410680251447
-0.041022941016864545,-0.022483294878234736,-0.01943758068148403
-0.09386257031729187,-0.081115368553455,-0.07435645943234366
-0.149769335394681,-0.1472277200650914,-0.1372469705704786
-0.20380706460798406,-0.2116133092379525,-0.19364393777478442
-0.23748394158761635,-0.25230545451646985,-0.22473402160382477
-0.24416591595885465,-0.25994850093400007,-0.23012258679090283
-0.2238940654329975,-0.23735905263329965,-0.21468158508305726
-0.17800341562724933,-0.19130262107284904,-0.17896350585366358
-0.12224726882462171,-0.13584807317676864,-0.13352304869019427
-0.07858166171421416,-0.0898341029853043,-0.09760406423411859
-0.05077205116506466,-0.06212805972175724,-0.07996745540610539
-0.03196530567552412,-0.049948723717526206,-0.0746649924590339
-0.024523393645261814,-0.048540421646147955,-0.07107022393875943
-0.0277274551265523,-0.05139241026305969,-0.0613908971246871
-0.02469455077567263,-0.048851805018714,-0.04452920845673307
-0.009577953017789301,-0.03958107279004308,-0.027244183775413384
-0.0033341409004027087,-0.035469396893205066,-0.02006182192153169
-0.019340755736422285,-0.04411028548191284,-0.029999455455623745
-0.04381622538516907,-0.055631470266856546,-0.04863341523037975
-0.05741294782500435,-0.05338101771058376,-0.05508390804420557
-0.0510322100032891,-0.03262448517112437,-0.04313004705662624
-0.02825461908821762,-0.0030006034083637167,-0.030121433628966392
-0.008222388544935634,0.023983596582416594,-0.030989631215699344
-0.00667512808602185,0.04255336861908261,-0.03772713149621374
-0.011830380853995648,0.04718873473341807,-0.03652887532278892
-0.01270670536169903,0.028916192279656003,-0.03332156688254405
-0.024242695951388074,-0.00912211743721894,-0.04023844682973881
-0.05184007165882815,-0.049693955503608535,-0.052845249804034655
-0.07720555838571119,-0.08336582110972779,-0.062101240604741335
-0.08943987006747636,-0.10854541291859124,-0.06742522911181448
-0.09259600755225182,-0.11967736848782738,-0.06847280636522779
-0.08778991533031609,-0.10807126096491113,-0.060178290577927854
-0.0657037992221043,-0.06708896299832083,-0.03543824694937232
-0.024571317641776842,-0.008166736635027663,0.005625346347096153
0.014746898356195965,0.04101768244074552,0.04762171391030251
0.03594984367148794,0.06994802851006363,0.07469369320570275
0.04766383767680423,0.08853903123122278,0.08900819060679564
0.06637473517331471,0.10818449128220786,0.10545371844805122
0.10022276928335781,0.13700868392906027,0.1334871727568582
0.13410503481948308,0.16356119333514674,0.16155650299900126
0.14186872225491773,0.16305873380214245,0.16575398719932172
0.12438330981214869,0.13477238516244958,0.13871070865059035
0.09976406817385683,0.09806453167381136,0.09370793787382112
0.0747135105669297,0.06380528379671525,0.04955901431045042
0.04989572665736128,0.03365771181645716,0.020700413534913777
0.028754397909017203,0.010671957405218124,0.00718953704054891
0.015445219448272096,-0.00042461368986279006,0.00131305916010025
0.006716205797320446,-0.004783980905787435,-0.0031068558269038704
-0.004600703665442752,-0.01296487133047719,-0.013008613427659854
-0.0167665524950436,-0.025639589972881474,-0.030142959188968036
-0.024886246761732744,-0.042730290989858775,-0.05077879604387688
-0.03173253197816541,-0.06544712339751804,-0.0700154714986789
-0.04260443290186049,-0.08378335790475953,-0.08022576212612512
-0.05600945935563565,-0.09034363941313964,-0.07894140371269372
-0.0665185071628598,-0.09180147974833522,-0.07228283048551869
-0.07135198452566126,-0.09298332118511998,-0.0636152049915236
-0.07130406052914623,-0.08997564088192522,-0.053684746644098745
-0.06698405455757722,-0.08010337259261535,-0.04857601373704204
-0.06110309555666155,-0.07083264036394443,-0.052622819017351004
-0.058973900854350995,-0.07064864109833723,-0.0587145524978161
-0.057789493511908145,-0.0743144726208193,-0.05803290976443072
-0.05295601614910668,-0.07322463081683815,-0.05448836755082677
-0.04610288464745758,-0.06556035371481479,-0.05175462143061805
-0.03560068312544987,-0.049693955503608535,-0.04254885693658187
-0.023496450862796912,-0.031145414151435652,-0.028858600775536643
-0.015410988022189934,-0.01980822863209916,-0.01708411945463768
-0.004395315108949772,-0.008301197636817546,0.0014852636401133975
0.016383160522923372,0.016432549797689978,0.031441667975733854
0.04422700249815503,0.05314748018115922,0.0627828833381267
0.07350856436883754,0.09121409747735836,0.08374877877972742
0.09278770353831194,0.11809214404567298,0.091462104446983
0.0937461834686125,0.13021486489125564,0.09782649502080223
0.08600303488882717,0.1350342302711983,0.113073766688633
0.07953329535929829,0.131488705960844,0.12597475231628463
0.06205472920174569,0.10991833051581426,0.11529089936880228
0.023373217728901125,0.07266555612518548,0.07968762312608403
-0.02376345598623779,0.029524805235126003,0.035624801802719895
-0.06368414508325666,-0.014811940881380327,-0.008689151053996737
-0.08561964291670693,-0.052425636908392484,-0.048238779963682955
-0.07472720313736256,-0.06326036289472467,-0.06522962199164685
-0.024735628486971226,-0.03451401609101379,-0.046760691510236777
0.03929767714232351,0.012299643216358819,-0.009930458347424842
0.07780118519954082,0.04154844955307401,0.016223097054571943
0.07889659083417006,0.04331059636600459,0.02332653185511428
0.06028838761590607,0.030805723199545422,0.022156976428358316
0.044740473889387476,0.02156329855019869,0.02778232277545447
0.046445198908279216,0.02844204032597589,0.04550503384347424
0.056310695905158685,0.043586595264415405,0.06046529804461643
0.05042289061902659,0.046466891460651326,0.057731551924407716
0.028268311658650482,0.03871061472582436,0.046975947110253206
0.014384045239725033,0.0376207729218432,0.04648085923021541
0.020237619099774964,0.04098229796659029,0.053074855777385514
0.036326389358391734,0.03729523575961506,0.04811680179034031
0.053606413244667785,0.0338912493458817,0.03202285809577823
0.06182195550438698,0.03387001866138856,0.023627889695137287
0.04326167628263802,0.017791313605250905,0.024761569188557174
0.005559183595743326,-0.011804260578185564,0.029360863842241656
-0.011666070008801264,-0.019107616043825555,0.049315057963765126
0.00040393082776952734,0.0048264422747737136,0.08357657429971428
0.008852246784847438,0.030112187506102863,0.10241143930115229
0.003601146023843583,0.03541278173455669,0.08704218945997887
-0.00021223484170941267,0.02148545270705718,0.04537588048346438
-0.0033683723264848722,-0.0025759897185009266,-0.005718623773769941
-0.006497124670394601,-0.024507286799914034,-0.05019760592383251
0.004203619122889657,-0.03180356537072298,-0.07647313949917194
0.019573529433780996,-0.02769188947388496,-0.08817586895339875
0.00236196839966927,-0.03834261619460994,-0.10249754154115887
-0.054065114354168775,-0.0729415550235963,-0.12330558287608086
-0.10025700070943998,-0.09685438265770242,-0.13287010670347776
-0.09951075562084882,-0.08045721733416768,-0.11905787236908988
-0.07757525778739856,-0.0384416927222446,-0.08930237326015143
-0.05931621511517263,0.0021089146596518574,-0.05156806657727048
-0.02724136887618558,0.032518331748658674,-0.0065222446804979635
0.023030903468079494,0.05536254826327678,0.04036760018974867
0.06563533636993998,0.07640215659597803,0.08064909813949077
0.08956310320137215,0.09970637127461415,0.10824486606159767
0.10502886150529354,0.12000290565005553,0.11686226524892225
0.11256662152858592,0.12643580305147678,0.10426263746129362
0.09750479405243405,0.10955740887943088,0.07683907401919987
0.055359062260074546,0.06689788683788257,0.039449176296345215
-0.000575087958180344,0.009419347020122893,-0.011343970120866095
-0.05274378130739727,-0.04458443743559296,-0.06728172537847019
-0.08281266597796955,-0.08022367980474314,-0.10391105331460011
-0.08597564974796143,-0.09617500075392195,-0.11145217450184254
-0.08075878041303974,-0.10625249899333217,-0.10424111190129198
-0.08003307418009788,-0.11526846300808541,-0.09749643643411036
-0.07580891620155893,-0.10994663809513845,-0.09168453523366664
-0.06282835943120259,-0.09103009821175115,-0.084136238859757
-0.052018075074455404,-0.07996891159082546,-0.08049124403281205
-0.05617377020083003,-0.08178767356240442,-0.08292363231299776
-0.07062627829271939,-0.07930368347670709,-0.0885992049667644
-0.07576783849026032,-0.06154067745078037,-0.09673586664738563
-0.0674427556670782,-0.03690600654390751,-0.10237556336781621
-0.06539571638736484,-0.02716819925638752,-0.10000057658096823
-0.07930052166193959,-0.044740129121875985,-0.09552326010062638
-0.0925891612670354,-0.07394647408960489,-0.09650626067403477
-0.08555802634975904,-0.08720149810815499,-0.09296889364709802
-0.06194518863828277,-0.07536892995064524,-0.06893919349859673
-0.041700723253291376,-0.0497505706622569,-0.028542892562179206
-0.025502412431211686,-0.018704233038455902,0.010626451454144646
0.0032588317630219497,0.017571929865488462,0.03985098674970923
0.03953729712489865,0.050698874569617136,0.059353144111198186
0.06409492219624263,0.07221971175082954,0.0735815392722845
0.07721240467092762,0.08747042011173475,0.08797496372671675
0.08752291020687522,0.09919683484677881,0.09835028364750889
0.09561521933269863,0.10092359718555416,0.10005797807430594
0.10128394349190488,0.0926507071280608,0.10072527043435689
0.10299551479601304,0.08249536304550907,0.10297827904786223
0.09658054554821563,0.07367755208602512,0.09710897635408079
0.08903593923970683,0.06680588720507898,0.08359092467304871
0.09134998364286108,0.06600619808917071,0.07448561279235352
0.09363664290514959,0.06640958109454037,0.07031682933870191
0.0853594840784825,0.059346840053155964,0.06235954732476105
0.07612384532151482,0.04829273032706133,0.05103710276389661
0.06743590938186177,0.03345248186635681,0.03667955424280043
0.05408565320981807,0.013325792966860562,0.017320900614655757
0.04578110924228525,0.00242737492704895,0.003802848933623675
0.049204251850501576,0.009921806553127195,0.004039630093641753
0.05678308958509254,0.025207899388187637,0.010863232614162725
0.05216184706400049,0.02997772650431298,0.012793357827643419
0.017998883834001483,0.008846118538808127,-0.0030853302669022267
-0.03655231677053401,-0.030175879559582282,-0.036801532416143076
-0.07395357290790568,-0.05756346255573224,-0.06693731641844389
-0.07163952850475143,-0.06132129371101794,-0.08036209067280219
-0.05192907336664178,-0.0600686833259227,-0.08467437785979809
-0.053893957223757956,-0.07155448363671117,-0.084136238859757
-0.07574729963461103,-0.08505012207951686,-0.07287837097889749
-0.08282635854840241,-0.08144798261051418,-0.052421913790668996
-0.06336236967808434,-0.0627154419927341,-0.03297715792251776
-0.03190368910857623,-0.04089737522861773,-0.017220448001314753
-0.0067230520825368794,-0.02445774853609671,-0.0051087329070567105
-0.0030329043508796716,-0.02049468743071067,-0.0031714325069088006
-0.016876093058506524,-0.025943896450616476,-0.009708027560741192
-0.019915843694602628,-0.022384218350600085,-0.008165362427290079
0.0012871016206893414,-0.0027316814047839495,0.009858706480752696
0.02444123822266462,0.01694916312035637,0.032532296349150454
0.035251522579411804,0.030303263666541118,0.05184789885729184
0.043939458519064854,0.045122281442752495,0.07147920957879066
0.05056666260857168,0.05585085400661899,0.08776688331336753
0.04708874971862388,0.055270548630473176,0.09372946343382277
0.04200880608803084,0.05391178482291225,0.09180651340700928
0.04741052512379622,0.05970776168953933,0.08889338762012021
0.05831665747357346,0.06514281691978305,0.08907994247346779
0.06523140554217045,0.06495881765417584,0.0904791038735746
0.06864085557995392,0.06255267341162002,0.08626009411325249
0.06709359512104014,0.05782530766448096,0.07205322451216782
0.04465147218157386,0.04038783880078238,0.04904240087041098
-0.012747783072997626,-0.0008563042745566267,0.01780163812135913
-0.08484601268725005,-0.054477936409395966,-0.020406230881557984
-0.12930578888276378,-0.09087440652546812,-0.053935878177451255
-0.1332903268787276,-0.09627407728155661,-0.06600454215170601
-0.11579122186552569,-0.0796079899544421,-0.0534120895507446
-0.09126782822026389,-0.055419163421925155,-0.033156537589198114
-0.06420446275970555,-0.032242332850247864,-0.021755165974994307
-0.03792842009903698,-0.009744884182351032,-0.014996140134478265
-0.015520528585652857,0.012490719376797075,-0.0017148696134642609
-0.0017731878710560607,0.027345121627163682,0.013948562881064951
-0.0020059615684147715,0.02655958630091752,0.015405125774509492
-0.013179099041632884,0.014111328293106724,-0.0017722711068019767
-0.021702724136091554,0.0017550699180995323,-0.02296059733508634
-0.019772071705057542,-0.006220590556489875,-0.035782655909398615
-0.007975922277144058,-0.0067018194050010365,-0.03544542213603954
0.01660908793506565,0.0053996707560884805,-0.019078821348123304
0.0479719205115437,0.02425251858599636,0.007081909240540693
0.07411103746788363,0.041944755663612616,0.03070979893567798
0.09806618944018153,0.06011822158974003,0.04874104303038797
0.11598976413680225,0.0735360141894042,0.062409773631431555
0.11772187429655971,0.07660030965124733,0.07145768401878902
0.12017969068925904,0.0854535050848865,0.08364832616638641
0.13450211936203618,0.10660634373488449,0.09981402172762065
0.13634377008525655,0.11466692694744646,0.10576942666140866
0.10814392127877041,0.09166701874654533,0.09268906136707666
0.06622411689855319,0.050288414669416436,0.06351475237818259
0.029486950427175498,0.009638730759885335,0.028786848908864498
-0.010762360360232153,-0.03183187295004716,-0.006278288333812671
-0.06410176848145906,-0.08142675192602104,-0.046394756990208834
-0.1072402116302013,-0.11829029710094227,-0.08064909813949077
-0.11229277011992861,-0.11536046264088902,-0.08566455361987368
-0.0846885481272721,-0.08325966768726209,-0.06525832273831571
-0.048067768504573755,-0.05285025059825527,-0.04688984487024663
-0.017649723287963416,-0.03588693368823681,-0.04145105337649806
-0.000287543979090172,-0.0274088136806431,-0.03795673746956461
0.002177118698825588,-0.02512297665021508,-0.031011156775700988
-0.004402161394166205,-0.030550954985627748,-0.029310637535571154
-0.008448315957077911,-0.039701380002170876,-0.0377056059362121
-0.001999115283198339,-0.04386967105765726,-0.0487553934037224
0.005401719035765374,-0.03872476851548646,-0.051001226830560534
-0.0002738514086573067,-0.027033738254597636,-0.037655379629541595
-0.019292831739907257,-0.02299990820090113,-0.023886196415157008
-0.054113038350683804,-0.04604227777078854,-0.04025279720307324
-0.09746371634113545,-0.08772518832565243,-0.08138814236621386
-0.11108097763662002,-0.10742018664045484,-0.09809197692748917
-0.07886235940808789,-0.08597011840755289,-0.06527984829831734
-0.043001517444413585,-0.052468098277378764,-0.017894915548032915
-0.044678857322439584,-0.03752169639420855,0.0030853302669022267
-0.0736249512175169,-0.03875307609481064,-0.00023678116001807787
-0.0913773687837268,-0.037925079399578204,-0.0037526226269531736
-0.07912936453152877,-0.023410368101101826,0.0025041401468578538
-0.04854016218450761,0.002172606713131276,0.014615855241115899
-0.015020749764853271,0.03125156757390135,0.029999455455623745
0.006866824072081965,0.05517147210283852,0.04061155653643396
0.001417181039801562,0.059495454844607935,0.03258969784248817
-0.021860188696069507,0.04293552093995912,0.0069599310671980465
-0.032307619936345754,0.02551220586592264,-0.020564084988236704
-0.021812264699554478,0.018315003822748345,-0.032862354935842324
-0.008167618263204172,0.015965474738840905,-0.019738938521507036
-0.0003628531164709314,0.018074389398492763,0.006543770240499606
0.008003307418009788,0.0241675958480238,0.01602936701455715
0.018053654115732943,0.024769131908662756,0.0007677449733919495
0.016342082811624775,0.015137478043608467,-0.011946685800912111
-0.008982326203959659,-0.005187363911157086,-0.007311515213891557
-0.051744223665798096,-0.03844876961707564,-0.007713325667255567
-0.08650281370962674,-0.0729415550235963,-0.0294326157089138
-0.09035727228647834,-0.08835503196561557,-0.05905178627117518
-0.07522013567294572,-0.08705996021153406,-0.07764987011259511
-0.06460839358747508,-0.0844485860188779,-0.07956564495274138
-0.05357902810380205,-0.07579354364050803,-0.06853738304523273
-0.03150660456602313,-0.050012415771005625,-0.048332057390356745
-0.007209138332903598,-0.016397165323534742,-0.023886196415157008
0.011323755747979631,0.009299039807995103,-0.004534717973679552
0.03201322967203915,0.026807277620004146,0.004879126933705847
0.06006246020376379,0.0413644502874668,0.010310743240787209
0.0781298068899296,0.04648104525031342,0.013661555414376372
0.06735375395926457,0.03745800434072913,0.006995807000534119
0.037127404728714355,0.021089146596518574,-0.00774920160059164
0.007051673772925647,0.0019249153940446484,-0.01769401032135091
-0.01786880441488926,-0.016149474004448116,-0.01983939113484804
-0.03410134666305111,-0.023466983259750197,-0.01854068234808222
-0.027090750601424064,-0.01161318441774731,-0.009535823080728045
0.00431315968635258,0.011860875736833936,0.005503368173753507
0.02919256016286889,0.022476217983403688,0.004850426187036989
0.02122348417094127,0.009058425383739521,-0.019652836281500465
-0.0027453603717894994,-0.013488561547974632,-0.04275693734993109
-0.010687051222851393,-0.027762658422195424,-0.044744464056749506
-0.001088559349412794,-0.029708804500733214,-0.03508666280267881
0.006435508103446707,-0.025016823227749382,-0.027186782282075668
-0.0007736302294568914,-0.022207295979823922,-0.022135450868356676
-0.01815634839397943,-0.0230565233595495,-0.016782761614614672
-0.022510585791630608,-0.014578403351955793,-0.0020234026401544838
-0.0007325525181582954,0.010360574032652078,0.02755989198877082
0.029534874423690526,0.03718200544231832,0.05566509816424994
0.05154568139452155,0.05779700008515678,0.07076169091206921
0.0680931527626393,0.0782987644106985,0.08123746344620235
0.08148448664598161,0.09372639514237986,0.08717134281998873
0.09045996656472483,0.09824853093941859,0.08831219750007584
0.101475639477965,0.10221159204480462,0.09926153235424513
0.11545575388992049,0.11039248246949437,0.11741475462229777
0.1177834908635076,0.11073217342138461,0.11669723595557632
0.10088001266413535,0.09355654966643474,0.08832654787341027
0.07494628426428841,0.06703234783967246,0.05700685807101905
0.04839639019496252,0.04431551543201319,0.04368253643000176
0.02189442012215167,0.027762658422195424,0.03697373689615622
0.004963556781913684,0.02295744683191485,0.02634011025534436
0.005168945338406663,0.03403986413733367,0.017729886254686984
0.004011923136829543,0.0408619907544625,0.004340987933664761
-0.01524667717699555,0.02817311832239612,-0.017945141854703417
-0.03586084196367431,0.016722702485762884,-0.02830611140216113
-0.03228023479548003,0.027076199623583916,-0.014572804121112611
-0.004669166517607079,0.046275815300213075,0.007792252720594926
0.021812264699554478,0.05243979069805457,0.0225946628150584
0.028206695091702587,0.04253921482942052,0.03048736814899433
0.018313812953957384,0.02221437287465497,0.0288873015222055
0.005045712204510876,-0.004189521739979529,0.010145713947441275
0.003662762590791477,-0.021266068967294736,-0.00795728201394086
0.02079216820230601,-0.015972551633671953,-0.00352301665360231
0.04183764895762003,0.0006793819037804642,0.012154766214261332
0.0544690451819383,0.015470092100667653,0.023003648455089627
0.0592888299743069,0.024662978486197057,0.030853302669022267
0.05091582315460975,0.019595921787167764,0.03296280754918333
0.02778222540828376,-0.0012809179644194168,0.022056523815017316
0.002635819808326577,-0.02338206052177764,0.005130258467058354
-0.01923121517295936,-0.039184766679504476,-0.008143836867288435
-0.04245381462709897,-0.054711473938820504,-0.02174081560165988
-0.0585768163117979,-0.06330282426371095,-0.03568220329605761
-0.051846917944044585,-0.04607766224494377,-0.03725356917617759
-0.030554970920938992,-0.011860875736833936,-0.02627553357533943
-0.02523540730777081,0.0034252170982265067,-0.013891161387727235
-0.05373649266378001,-0.019687921419971367,-0.008043384253947433
-0.10450854382884467,-0.0694880303460456,-0.022874495095079765
-0.14668850704728634,-0.116421996865546,-0.06272548184478899
-0.15134398099446053,-0.13297485387536376,-0.10078984711436181
-0.11430557797355981,-0.11181493833053473,-0.10647259495479569
-0.05794011178666966,-0.06862464917665792,-0.07853959325932972
-0.006278043543468756,-0.026892200357976705,-0.03724639398951037
0.030767205762648405,0.0029086037755601123,0.0010260516934116708
0.050162731780802154,0.02125899207246369,0.02786124982879383
0.05246992989873996,0.027868811844661123,0.03662215274946271
0.04170756953850781,0.024202980322179036,0.029339338282240012
0.022702281777690726,0.015802706157726838,0.017127170574640967
0.007202292047687166,0.011952875369637541,0.009026384827355818
0.00811284798147271,0.017239315808429276,0.00325035956024816
0.02260643378466067,0.02103960833270125,-0.005898003440450304
0.03511459687508315,0.01438025029668649,-0.01181753244090225
0.03455320148733567,0.008003968053913593,-0.005352689253742003
0.02409892396184299,0.016057474371644512,0.010447071787464285
0.007825304002382539,0.030826953884038562,0.026010051668652494
-0.024037307394895093,0.025009746332918335,0.024366933921860377
-0.06599134320119447,-0.009093809857894755,-0.006027156800460164
-0.07641823558582143,-0.034867860832566114,-0.04023844682973881
-0.03676455161224342,-0.0241675958480238,-0.04376863867000833
0.006195888120871564,-0.004734442641970109,-0.027732096468783968
0.005696109300071979,-0.011238108991701844,-0.025644117148624555
-0.02038139108932005,-0.03131525962738077,-0.03297715792251776
-0.024222157095738776,-0.03204417979497856,-0.022759692108404336
0.005346948754033913,-0.009667038339209521,0.0016287673734576872
0.03555275912893484,0.007961506684927315,0.014551278561110968
0.035977228812353663,-0.0018399926560720905,0.0036736955736138143
0.013617261295484575,-0.027642351210067636,-0.018504806414746146
-0.002964441498715345,-0.03913522841568715,-0.02573021938863113
-0.0011638684867935534,-0.02981495792319891,-0.013374547947687793
0.0067230520825368794,-0.021832220553778457,-0.00933491785404604
0.007407680604180146,-0.027352198521994726,-0.024079926455171798
0.0035052980308135253,-0.030558031880458792,-0.026210956895334498
0.0013624107580701007,-0.015470092100667653,0.0021812567468332024
-0.0012391776241743127,0.009674115234040567,0.037016788016159506
-0.0039639991403145145,0.03016172576992019,0.06059445140462629
0.004867708788883626,0.048151192430440394,0.08119441232619906
0.029541720708906958,0.07146248400390758,0.10309308203453767
0.054900361150573555,0.09180147974833522,0.1175295576089732
0.06434823474925064,0.09031533183381545,0.11309529224863465
0.04932748498439737,0.061052371707438165,0.08530579428651297
0.008126540551905577,0.014670402984759398,0.036736955736138145
-0.04583587952401671,-0.035384474155232506,-0.027265709335415028
-0.08275104941102164,-0.07244617238542303,-0.08454522449978823
-0.08641381200181313,-0.08486612281390965,-0.10653717163480061
-0.07476828084866116,-0.08270059299560942,-0.09662823884737741
-0.059754377369024315,-0.07517077689537593,-0.07582019751245542
-0.03344410328227358,-0.059261917315183404,-0.05514130953754329
-0.005791957293102036,-0.042624137567393076,-0.04643063292354491
0.0038202271507694285,-0.03758538844768797,-0.05608125899094838
-0.003306755759536978,-0.040869067649293545,-0.06956343473864439
-0.01273409050256476,-0.041279527549494245,-0.06804947035186214
-0.011227907754949574,-0.03389832624071274,-0.0487553934037224
0.00575087958180344,-0.018491926193524508,-0.02270229061506662
0.027665838559604406,0.0034889091517059253,-0.0012269569200936763
0.03958522112141368,0.027621120525574496,0.012958387120989352
0.036388005925339625,0.04684196688669679,0.023161502561768344
0.022798129770720783,0.055886238480774224,0.029970754708954887
0.007215984618120031,0.055433317211587244,0.02891600226887436
6.1616566947894e-05,0.05130748752508713,0.02475439400188996
0.012337005960011665,0.054732704623313644,0.03598356113608062
0.0421046540810609,0.06897141702337921,0.06397396432488431
0.06958564293982163,0.07987691195802187,0.08517664092650311
0.07912251824631233,0.0767489244426993,0.0866619045666165
0.07287185984370931,0.06494466386451374,0.07889117740602322
0.06384160964323463,0.059219455946197125,0.07824541060597391
0.06328021425548715,0.06692619441720676,0.0836411509797192
0.06688820656454716,0.07568031332321129,0.07339498441893692
0.06347875652676369,0.07016033535499501,0.03783475929622196
0.047499526831609844,0.04357244147475331,-0.0083734428406393
0.010084578123805319,-0.007062741041384408,-0.05410090747079719
-0.049888880372144846,-0.070004643668712,-0.09531517968727717
-0.10535063691046588,-0.11576384564625868,-0.1195601354357949
-0.12557456343980797,-0.12456042592124947,-0.11949555875578997
-0.10722651905976843,-0.10071129034062276,-0.09713767710074965
-0.07289924498457503,-0.06326036289472467,-0.05988410792457206
-0.04980672494954765,-0.03183894984487821,-0.025220781135258902
-0.03647700763315325,-0.005916284078754875,0.0036306444536105273
-0.012179541400033715,0.024302056849813687,0.037296620296180874
0.020196541388476368,0.049906262348539926,0.06489956340495498
0.04087916902731945,0.05745730913326654,0.07043163232537734
0.04057793247779642,0.04889426638770028,0.060960385924654234
0.022852900052452243,0.03237679385203775,0.04843968519036496
0.00022592741214227802,0.012172259109399982,0.03322828945587026
-0.014589433796218014,-0.008216274898844989,0.010927809294167654
-0.018984748905167787,-0.024004827266909733,-0.016208746681237514
-0.023304754876736798,-0.035568473420839714,-0.03958550484302229
-0.03794895895468627,-0.04712504267993865,-0.05329011137740195
-0.056543469602517396,-0.06154067745078037,-0.060759480697972226
-0.06898316984077556,-0.07858184020394035,-0.07138593215211687
-0.07582260877199179,-0.09085317584097498,-0.08331109239302734
-0.07613069160673126,-0.09334424282150336,-0.08562867768653762
-0.06658697001502412,-0.09061963831155045,-0.0766022928591818
-0.05285332187086019,-0.084158433330805,-0.06251740143143977
-0.0403862364917363,-0.07012495088083978,-0.04803069955033373
-0.02605696153374273,-0.05212840732548853,-0.036485824202785636
-0.01137167974449466,-0.03958107279004308,-0.03137709129572892
-0.004915632785398655,-0.03303494507132507,-0.028980578948879288
-0.007154368051172137,-0.025866050607474964,-0.023685291188475004
-0.012453392808691021,-0.017147316175625673,-0.022357881655040324
-0.023578606285394106,-0.01185379884200289,-0.03026493736231068
-0.04082439874558799,-0.011478723415957424,-0.03420411484261143
-0.045870110950098866,-0.007940276000434175,-0.020607136108239988
-0.02189442012215167,0.007657200207192315,0.006995807000534119
0.018567125506965394,0.029404498022998212,0.0358257070294019
0.050614586605086706,0.04425890027336482,0.056949456577681336
0.07173537649778149,0.056013622587733056,0.07276356799222206
0.09310263265826783,0.07713107676357582,0.08756597808668552
0.11647585038716897,0.10342174106091358,0.09603269835399861
0.14111563088111012,0.1255228836182718,0.10160781839442426
0.1663441919036645,0.144573884503449,0.11400654095537088
0.18569864021051966,0.16427595971308243,0.12379349556945145
0.1941948801641126,0.187035253489728,0.12278896943604141
0.18505508940017498,0.20150750341921808,0.117622835035647
0.15046765648675717,0.18160019825948429,0.10739819403486635
0.09960660361387888,0.1270302622172847,0.08832654787341027
0.05460597088626695,0.0720144818007292,0.06945580693863618
0.035025595167269524,0.04539120344633226,0.06522244680497963
0.041064018728163135,0.04605643156045063,0.07638703725916536
0.0414953346967984,0.045907816768998654,0.0801683606327874
0.015253523462211982,0.025420206233119032,0.0561386604842861
-0.020846938484037472,-0.005102441173184528,0.012542226294290913
-0.04471993503373818,-0.029064807071107982,-0.02632575988200993
-0.03886636117368825,-0.02902942259695275,-0.03504361168267552
-0.0013487181876372354,0.0025193745598525545,-0.006070207920463451
0.0308288223295963,0.03360109665780879,0.02811955654881355
0.02715921345358839,0.032390947641699835,0.035861582962737976
0.007838996572815404,0.012335027690514052,0.027272884522082243
-0.0034299888934327663,-0.007543969889895571,0.01665360825460481
-0.014808514923143858,-0.02684266209415938,0.00152113957344947
-0.029459565286309768,-0.04385551726799517,-0.01985374150818247
-0.03946198798751789,-0.060026221956936424,-0.050427211897183376
-0.05071043459811676,-0.08016706464609477,-0.08979028595352202
-0.0637936856467196,-0.09206332485708393,-0.11904352199575545
-0.06471108786572156,-0.0818159811417286,-0.1155994323954925
-0.05492774629143929,-0.06266590372891677,-0.08613811593990985
-0.05742664039543721,-0.057959768666270846,-0.06362955536485802
-0.08475701097943641,-0.07427908814666408,-0.06766918545849977
-0.11783141486002263,-0.09707376639746486,-0.0852268672331736
-0.13007941911222068,-0.10330851074361683,-0.08982616188685809
-0.11994691699190033,-0.08630980935944313,-0.0694199310053001
-0.10703482307370832,-0.06667850309812014,-0.03878188393629427
-0.10517263349483863,-0.07016741224982606,-0.025543664535283554
-0.10986918515331144,-0.09636607691436021,-0.03807154045624004
-0.11386056943449169,-0.12274166394967052,-0.05900155996450468
-0.1121010741338685,-0.128445641183494,-0.06771223657850306
-0.09052842941688916,-0.10289097394858508,-0.052608468644016575
-0.042440122056666106,-0.05301301917936934,-0.016058067761226008
0.009708032436901522,-0.0023636828735695316,0.02627553357533943
0.04239904434536751,0.03372848076476762,0.065301373858319
0.0650739409821925,0.06212805972175724,0.10285630087451958
0.09953129447649811,0.09280639881434381,0.13058839734330355
0.14866708347483537,0.12490719376797076,0.14016727154403488
0.18979956505516282,0.1521390850778377,0.1417601629841565
0.1961460714507959,0.16382303844389545,0.14221219974419103
0.1640164549300774,0.14762402617563003,0.12696492807636026
0.10337206048291685,0.09957191027282428,0.0771476070458901
0.0297813406914821,0.03072787735640391,0.0010834531867493866
-0.03241031421459225,-0.033933710714867976,-0.06477041004494512
-0.06823007846696796,-0.07296986260292047,-0.09873056854087126
-0.08336036879528415,-0.08859564638987115,-0.11536982642214164
-0.09826473171145807,-0.10175867077561765,-0.1382443215172214
-0.13129121159552926,-0.1292382534045712,-0.17058288782635708
-0.1731288605531493,-0.16540826288604987,-0.19490677062821415
-0.19103874267933715,-0.18430357208494402,-0.19513637660156502
-0.17018495791008323,-0.1682107132391443,-0.17107797570639488
-0.1341940365272967,-0.13358346683083375,-0.13723979538381137
-0.10674043280940171,-0.10611096109671124,-0.11018934164841279
-0.07746571722393562,-0.08208490314530836,-0.08783145999337247
-0.03466274205079859,-0.04786811663719853,-0.05801138420442908
0.0076609931571881545,-0.007593508153712896,-0.024058400895170154
0.03726433043304301,0.029864496187016237,0.003759797813620388
0.05453066174888619,0.05778284629549468,0.02198477194834517
0.05829611861792416,0.07031602704127804,0.030042506575627032
0.048861937589679945,0.07002587435320513,0.03027928773564511
0.033512566134437906,0.06467574186093397,0.028715097042192352
0.023838765123618547,0.06104529481260712,0.03209460996245037
0.027063365460558333,0.0609816027591277,0.04036042500308146
0.032608856485868795,0.05692654202093806,0.04305112000328688
0.018395968376554578,0.038583230618865524,0.029619170562261377
-0.019416064873803044,0.004458443743559296,0.001851198160141336
-0.05657085474338313,-0.029744188974888446,-0.025342759308601547
-0.06860662415387175,-0.04211460113955773,-0.03919804476299271
-0.057282868405892126,-0.03157002784129844,-0.038824935056297555
-0.04186503409848576,-0.017317161651570788,-0.03125511312238628
-0.03443681463865632,-0.015165785622932653,-0.027617293482108538
-0.027029134034476168,-0.017423315074036487,-0.026225307268668927
-0.0025262792448636543,-0.0005873822709768597,-0.008732202174000024
0.03462851062471643,0.033332174654229024,0.023771393428481575
0.06076078129583992,0.05522101036665585,0.04695442155025156
0.06634735003244897,0.05326071049845597,0.050671168243868664
0.059877610502920106,0.03996322511091959,0.04342422970998204
0.05396242007592228,0.031159567941097744,0.03746164958952681
0.05702955585288412,0.03607800984867506,0.041336250389822624
0.0681342304739379,0.05305548054835562,0.05294570241737566
0.07802026632646668,0.07168894463850106,0.06456950481826311
0.07568568306766313,0.07995475780116337,0.07201017339216453
0.06486170614048309,0.07719476881705524,0.07794405276595091
0.061972573779148506,0.07437108777946769,0.08509771387316374
0.06758652765662329,0.07430739572598827,0.08693456165997065
0.0688667829920962,0.06960126066334234,0.07984547723276275
0.060877168144519274,0.056976080284755384,0.07048185863204785
0.0445556241885438,0.03752169639420855,0.0598554071779032
0.02528333130428584,0.014196251031079282,0.045397406043466024
0.011686608864450563,-0.0024132211373868568,0.034268691522616364
0.002512586674430789,-0.006510743244562781,0.0314631935357355
-0.011700301434883428,-0.009320270492488243,0.030781550802350125
-0.032827937612794636,-0.020558379484190085,0.02545756229527698
-0.05088159172852758,-0.03684231449042809,0.011444422734207097
-0.05372280009334714,-0.049262264918914694,-0.007591347493912921
-0.03579237911150998,-0.04718873473341807,-0.017134345761308182
-0.0058124961487513345,-0.028710962329555657,-0.012240868454267905
0.011823534568779217,-0.011415031362478007,-0.009313392294044397
0.005175791623623097,-0.012313797006020913,-0.02235070646837311
-0.00906448162655685,-0.025561744129739963,-0.04200354274987357
-0.011303216892330334,-0.03457770814449321,-0.04884149564372897
0.002279812977072078,-0.02546266760210531,-0.03346507061588834
0.024735628486971226,0.006057821975375805,-0.004362513493666405
0.04348075740956387,0.03823646277214425,0.01037531992079214
0.0462535029222191,0.040083532323047386,-0.00927034117404111
0.03545006485068835,0.01636885774421056,-0.03863838020294998
0.02351698971844621,-0.003609216363833716,-0.04237665245656873
0.01376103328502966,-0.012073182581765332,-0.02677062145537723
0.005100482486242337,-0.01842823414004509,-0.017851864428029628
-0.000554549102531046,-0.022745139986983454,-0.019157748401462664
-0.004949864211480818,-0.016956240015187418,-0.015620381374525925
-0.008893324496146035,-0.0030006034083637167,-0.0019014244668118375
-0.006729898367753312,0.007911968421109989,0.013094715667666427
0.00441585396459907,0.014104251398275678,0.021260078094956506
0.02004592311371485,0.022377141455769037,0.02420907981518166
0.032554086204137335,0.03445032403753437,0.02810520617547912
0.035648607121964895,0.04434382301133738,0.030114258442299178
0.0352720614350611,0.049325956972394114,0.028241534722156198
0.04747898797596055,0.05660808175354096,0.03420411484261143
0.06903794012250701,0.06685542546889629,0.050656817870534235
0.07578153106069319,0.06879449465260304,0.06110388965799852
0.06293789999466551,0.06040129738298189,0.05925269149785718
0.04837585133931323,0.05226994522210946,0.05567227335091716
0.03414242437434971,0.04645981456582028,0.052543891964011644
0.013589876154618845,0.03699800617671111,0.044837741483423295
0.0013692570432865335,0.025519282760753683,0.034440896002629506
0.0032588317630219497,0.010289805084341613,0.01767965994801648
-0.009975037560342397,-0.021839297448609504,-0.01601501664122272
-0.05497567028795432,-0.07156156053154222,-0.06052987472462136
-0.09785395459847211,-0.10617465315019066,-0.0846241515531276
-0.09599176501960242,-0.08979164161631802,-0.06394526357821545
-0.05741294782500435,-0.038583230618865524,-0.01915057321479545
-0.025372333012099464,-0.0013233793334056958,0.011092838587513587
-0.012672473935616867,0.012575642114769633,0.02171211485499102
0.004833477362801463,0.028654347170907285,0.031090083829040348
0.0335331049900872,0.048646575068613654,0.03922674550966157
0.050162731780802154,0.05350132492271155,0.030064032135628676
0.03660708705226547,0.03617708637630972,0.003357987360256377
0.0003970845425530947,0.0010969186988122076,-0.030315163668981182
-0.034696973476880756,-0.03880261435862797,-0.0664924548450766
-0.05573560794697834,-0.06466158807127188,-0.09351420783380633
-0.061233174975773776,-0.06509327865596572,-0.09406669720718185
-0.052305619053545575,-0.04784688595270539,-0.07326583105892706
-0.04125571471422325,-0.03453524677550693,-0.05561487185757944
-0.036791936753109156,-0.03321186744210123,-0.0494011602037717
-0.027905458542179552,-0.028286348639692867,-0.036815882789477505
-0.0033889111821341703,-0.006432897401421269,-0.002819848360215291
0.02718659859445412,0.022101142557358223,0.0394922274163485
0.04172126210894067,0.036240778429789136,0.06217299247141348
0.0317941485451133,0.029178037388404725,0.05729386553770763
0.00903709648569112,0.009454731494278126,0.03975770932303544
-0.013980114411955506,-0.011967029159299633,0.025952650175314777
-0.034635356909932864,-0.030473109142486236,0.02044928200156127
-0.0547839743018942,-0.050911181414548534,0.008316041347301583
-0.07092751484224243,-0.07307601602538617,-0.020499508308231773
-0.07663047042753084,-0.08317474494928953,-0.04985319696380622
-0.0763497727336571,-0.07451970257091967,-0.06849433192522944
-0.07843788972466907,-0.05719546402451783,-0.07956564495274138
-0.0743369648800259,-0.03798169455822657,-0.07529640888574876
-0.05375018523421287,-0.01304979406844975,-0.049551839123783206
-0.028665396201203577,0.015243631466074164,-0.01782316368136077
-0.008462008527510776,0.038845075727614246,0.006306989080481529
0.01389111270414188,0.055327163789121545,0.0231399770017667
0.03640854478098892,0.06270836509790305,0.030838952295687838
0.05007373007298853,0.062234213144222936,0.029281936788902296
0.05739925525457148,0.063309901158542,0.028858600775536643
0.07109182568743681,0.07250986443890245,0.038437474976267975
0.09889458995136988,0.08597011840755289,0.05377084888410532
0.13971898869695787,0.10329435695395474,0.07265594019221383
0.183884374628165,0.13001671183598631,0.10154324171441934
0.2027664292550863,0.1510138587997013,0.13080365294332
0.1727728537218948,0.13910344479905004,0.1396793588506643
0.10553548661130957,0.09238178512448103,0.1211960779959198
0.031992690816389856,0.03676446864728657,0.08723591949999367
-0.018519201510450365,0.0007076894831046501,0.06393091320488102
-0.035135135730732445,-0.011698107155719867,0.060723604764636153
-0.03720956015131154,-0.020798993908445668,0.05297440316404451
-0.047739146814184986,-0.04101060554591448,0.021977596761677955
-0.07044142859187572,-0.07092463999674804,-0.024940948855237535
-0.09471835596934595,-0.09873683668276079,-0.06596149103170272
-0.09934644477565444,-0.10102975060801986,-0.07180926816548253
-0.07068104857445086,-0.06885110981125141,-0.03937742442967307
-0.02173695556217372,-0.02418882653251694,-0.002432388280185709
0.01455520237013585,0.0006086129554699991,0.00497957954704685
0.011556529445338342,-0.01237748905950033,-0.023900546788491437
-0.024913631902598477,-0.04946749486901505,-0.06535160016498949
-0.06738113910013031,-0.08311812979064116,-0.09352138302047355
-0.09532767535360846,-0.10197097762054903,-0.10780717967489757
-0.10717174877803697,-0.11562230774963773,-0.1240231015428023
-0.11141644561222522,-0.13446807868471458,-0.14475939101105215
-0.10332413648640182,-0.14225973989369678,-0.1513820883048911
-0.06875039614341684,-0.11519769405977495,-0.13068884995664456
-0.01935444830685515,-0.06505789418181049,-0.09262448468707174
0.005038865919294443,-0.03328263639041169,-0.06465560705826968
-0.01596553712472098,-0.04276567546401401,-0.0663920022317356
-0.057276022120675694,-0.07045756493789897,-0.08265815040631082
-0.08202534317807979,-0.0798839888528529,-0.08397120956641108
-0.0849213218246308,-0.06935356934425571,-0.06958496029864604
-0.07936213822888748,-0.06035883601399561,-0.05534938995089251
-0.05774841580060955,-0.04943918728969086,-0.03576113034939697
-0.018334351809606683,-0.024011904161740778,-0.0013489350934363224
0.007489836026777338,-0.0027882965634323216,0.029181484175561295
0.00657243380777536,-0.002229221871779648,0.03807154045624004
0.0037723031542543995,-0.005293517333622783,0.0400375416030568
0.01376103328502966,0.004274444477952087,0.05031958409717516
0.023222599454139608,0.019772844157943927,0.060709254391301724
0.019210676317310063,0.028088195584423565,0.05958275008454905
0.005175791623623097,0.022582371405869387,0.045756165376826745
-0.008181310833637037,0.009631653865054289,0.030049681762294247
-0.009153483334370476,0.008442735533438476,0.027739271655451182
0.007791072576300375,0.024868208436297407,0.03695938652282179
0.02952118185325766,0.03684231449042809,0.038200693816249895
0.03607992309060015,0.028286348639692867,0.025062927028580182
0.02155895214654647,0.0072750478863158035,0.007411967827232559
-0.011399064885360391,-0.021315607231112064,-0.01566343249452921
-0.05672147301814465,-0.056034853272226195,-0.046940071176917134
-0.09630669413955832,-0.08060583212561966,-0.0699652451920084
-0.11067020052363406,-0.08207074935564627,-0.07134288103211359
-0.09557414162140003,-0.06569481471660467,-0.05691358064434526
-0.056255925623427225,-0.03930507389163227,-0.032288340002465166
-0.004997788207995847,-0.004875980538591039,0.0035732429602728117
0.04086547645688659,0.03131525962738077,0.043711237176670616
0.07280339699154498,0.057273309867659335,0.07124960360543979
0.09160329619586909,0.07180925185062885,0.0823998436862911
0.10352267875767836,0.09001102535608045,0.09366488675381783
0.11166975816523324,0.12020813560015588,0.1092565673816749
0.10130448234755418,0.1445031155551385,0.10896238472831911
0.06271881886773967,0.13465915484515284,0.08118006195286463
0.02253797093249634,0.08965718061452813,0.04056850541643068
0.011768764287047755,0.042043832191247264,0.007612873053914565
0.01886836205648843,0.012858717908011493,-0.00947842158739033
0.01634892909684121,-0.004168291055486389,-0.011745780574230105
0.0033204483299698437,-0.01161318441774731,-0.0059841056804568775
-0.008592087946622997,-0.010452573665455683,-0.00518765996039607
-0.011844073424428513,-0.011238108991701844,-0.014572804121112611
-0.0034505277490820643,-0.015208246991918932,-0.022910371028415838
0.00852362509445867,-0.011386723783153821,-0.020793690961587567
0.015547913726518587,0.0011181493833053472,-0.01098521078750537
0.018081039256598673,0.009780268656506264,-0.0013345847201018935
0.018704051211294048,0.011698107155719867,0.001851198160141336
0.02615965581198922,0.01856269514183497,0.001463738080111754
0.048012998222842294,0.03423801719260297,0.006744675467181612
0.0711534422543847,0.04796719316483319,0.01726349912131804
0.07825988630904182,0.05361455524000829,0.02411580238850787
0.0747545882782283,0.05801638382491922,0.027280059708749457
0.0742958871687273,0.06747111531919735,0.03288388049584397
0.07479566598952689,0.07984860437869767,0.04414174837670349
0.06906532526337275,0.0881922633845015,0.05956122452454741
0.0548045131575435,0.07966460511309047,0.06296943819147428
0.025783110125085423,0.04429428474752005,0.036421247522780704
-0.0198473808424383,-0.0072750478863158035,-0.009234465240705036
-0.06490278385178168,-0.05067056699029295,-0.043115696683291814
-0.08785153189726398,-0.07123602336931409,-0.052500840844008356
-0.08368899048567292,-0.06914126249932431,-0.048317707017022316
-0.05911082655867965,-0.047811501478550164,-0.03609118893608884
-0.02346221943671475,-0.014486403719152188,-0.012484824800953196
0.011891997420943544,0.017876236343223464,0.01613699481456537
0.035484296276770515,0.040380761905951336,0.03731814585618252
0.04314528943395867,0.05246102138254771,0.0482100792170141
0.04369299225127328,0.056565620384554684,0.05326858581740031
0.043939458519064854,0.05091825830937958,0.05174027105728362
0.03816804008161212,0.03667246901448297,0.0434529304566509
0.025399718152965194,0.022447910404079504,0.03450547268263444
0.018060500400949375,0.014847325355535559,0.030860477855689482
0.027200291164886987,0.019029770200684044,0.038093066016241676
0.050039498646906364,0.03585862610891262,0.05434486381748248
0.07330317581234456,0.05624008322232655,0.06820732445854086
0.08178572319550464,0.06645911935835769,0.06998677075201006
0.06635419631766541,0.05468316635949631,0.05171157031061477
0.034238272367379766,0.02500266943808729,0.016689484187940883
0.003888690002933755,-0.0031704488843088325,-0.013862460641058377
-0.014938594342256079,-0.019751613473450787,-0.02792582650879876
-0.030965748033924954,-0.03492447599121448,-0.038064365269572825
-0.0647384730065873,-0.06687665615338943,-0.06512916937830585
-0.11718786404967796,-0.11524723232359227,-0.10902696140832403
-0.15148775298400563,-0.15028493863210352,-0.13886138757060185
-0.1418618759697013,-0.14879879071758373,-0.1334871727568582
-0.10964325774116916,-0.12326535416716797,-0.1094574726083569
-0.0770412475405168,-0.0914193274274587,-0.08115136120619577
-0.04199511351759798,-0.053855169664263874,-0.042118345736549004
-0.0078116114319496735,-0.01407594381895149,0.0015785410667871857
0.021079712181396183,0.021428837548408807,0.036112714496090485
0.04546618012232934,0.05127917994576295,0.06075230551130501
0.05751564210325084,0.07030187325161595,0.07513137959240283
0.055242675411395194,0.07367755208602512,0.07438516017901252
0.05195645850750751,0.0678603445349049,0.06098908667132309
0.06523825182738688,0.06928280039594525,0.04966664211045864
0.09597807244916956,0.08262982404729895,0.049006524937074906
0.12263066079674194,0.09428546983403253,0.04912132792375034
0.13090781962340903,0.0982060695704323,0.044758814430083935
0.11295001350070615,0.0919359407501251,0.03575395516272976
0.057837417508423174,0.06536927755437653,0.012527875920956484
-0.006873670357298398,0.028604808907089958,-0.016868863854621247
-0.02633081294240004,0.010785187722514867,-0.024919423295235894
0.0038544585768515915,0.020607917748007413,-0.00933491785404604
0.03974268568139163,0.0384416927222446,0.005567944853758437
0.05019696320688431,0.037776464608126226,0.00429076162699426
0.021860188696069507,-0.0017692237077616255,-0.01818909820138871
-0.046602663468257165,-0.07984152748386662,-0.06782703956517849
-0.12056308266137927,-0.15833136805500336,-0.13113371153001185
-0.15063881361716797,-0.19005708758258485,-0.16865993779954358
-0.13279739434314444,-0.17153685380973616,-0.16105423993229623
-0.1089380903638766,-0.13776591167598223,-0.1304520687966265
-0.10662404596072236,-0.11315954834843356,-0.10103380346104711
-0.11410703570228327,-0.09754084145631393,-0.07991722909943488
-0.10869847038130145,-0.08304736084233069,-0.06586821360502894
-0.08082724326520407,-0.059983760587950144,-0.04810245141700588
-0.03811326979988066,-0.026729431776862635,-0.022644889121728903
-0.0039366139994487835,-0.00025476821391767405,-0.00594105456045359
0.0017594953006231954,0.005038749119705109,-0.008423669147309801
-0.011837227139212082,-0.0008421504848945337,-0.01700519240129832
-0.02094278647706753,-0.0016984547594511602,-0.018641134961423222
-0.017950959837486454,0.003092603041167321,-0.01306601492099757
-0.01278201449907979,0.004791057800618482,-0.004132907520315541
-0.017184175893245994,-0.0008492273797255801,-0.0007964457200608074
-0.032540393633704465,-0.010311035768834752,-0.007211062600550554
-0.045808494383150974,-0.016758086959918116,-0.011573576094216958
-0.0397563782518245,-0.012837487223518353,-0.0008897231467345956
-0.014253965820612812,0.0030713723566741817,0.021733640414992664
0.0113169094627632,0.019263307730108578,0.03838007348293026
0.026741590055385997,0.02553343655041578,0.04363231012333126
0.04013977022394473,0.027960811477464726,0.0498962480838095
0.0483073884871489,0.028534039958779494,0.05452424348416284
0.04027669592827338,0.018322080717579393,0.04645215848354655
0.028014999105642473,0.004069214527851739,0.029934878775618814
0.026166502097205654,0.003941830420892902,0.015598855814524281
0.024420699367015325,0.014054713134458352,0.00797163238727529
0.014418276665807197,0.017295930967077648,0.0037956737469564605
0.007407680604180146,0.014826094671042421,-0.0005883653067115874
0.006086347557408641,0.009773191761675218,-0.006464843187160247
-0.0012186387685250146,-0.005477516599229992,-0.014701957481122472
-0.014589433796218014,-0.025271591441667057,-0.02278839285507319
-0.02284605376723581,-0.035172167310301115,-0.02529970818859826
-0.021066019610963316,-0.029262960126377285,-0.016675133814606453
-0.011186830043650979,-0.004762750221294295,0.0057473245204387995
0.0034642203195149298,0.03121618309974612,0.03310631128252762
0.017177329608029562,0.0554262403167562,0.04549068347013981
0.024557625071343975,0.05737238639529399,0.03802131414956954
0.028165617380403993,0.05130041063025609,0.029647871308930235
0.0314586805695081,0.04718165783858703,0.03164974838908308
0.03262939534151809,0.04395459379562982,0.039312847749668145
0.0332592535814299,0.04142106544611517,0.04750691092362708
0.029281561870682517,0.03137895168086019,0.04465836181674293
0.013090097333819259,0.007013202777567083,0.022939071775084696
-0.0036079923090600154,-0.02091930112057346,-0.005094382533722281
-0.011022519198456595,-0.043798902109346796,-0.024158853508511158
-0.01806734668616581,-0.05870284262353073,-0.029260411228900655
-0.022825514911586513,-0.05591454606009841,-0.023592013761801214
-0.011015672913240161,-0.03006264924228554,-0.010238991374115065
0.014842746349226022,0.007451970257091966,0.011939510614244897
0.0335947215570351,0.03212202563812007,0.03124076274905185
0.033635799268333696,0.03048018603731728,0.03178607693576015
0.02520802216690508,0.015363938678201955,0.021532735188310656
0.018567125506965394,0.006008283711558479,0.016969316467962247
0.012426007667825291,0.010686111194880218,0.02003312117486283
0.00667512808602185,0.025413129338287987,0.02246550945504854
0.00030808283473947003,0.031704488843088324,0.014257095907755174
-0.013302332175528672,0.015470092100667653,-0.004219009760322115
-0.031376525146910916,-0.012044875002441145,-0.018999894294783947
-0.04170756953850781,-0.031754027106905655,-0.02267358986839776
-0.03609361566103302,-0.03447155472202751,-0.020147924161538263
-0.012405468812175992,-0.01749408402234695,-0.009593224574065761
0.01920383003209363,0.013488561547974632,0.014450825947769965
0.0370315567356843,0.041279527549494245,0.041931790883201425
0.03110267373825361,0.049219803549928415,0.054811250950851424
0.014096501260634862,0.0373164664441082,0.04391214240335262
0.007448758315478742,0.02321929194066357,0.017937966668036202
0.0181289632531137,0.02204452739870985,-0.002726570933541503
0.028610625919472117,0.02676481625101787,-0.008351917280637656
0.02292136290461657,0.02263898656451776,-0.0029633520935595805
0.008763245077033814,0.009879345184140916,0.00414725789364997
-0.0013281793319879374,-0.001917838499213602,0.00435533830699919
-0.008133386837122008,-0.008655042378369872,-0.00045203676003451233
-0.010796591786314315,-0.008647965483538824,0.0003802848933623675
0.004634935091524916,0.008046429422899872,0.018088645588047708
0.036613933337481905,0.04072752975267262,0.050348284843844016
0.05747456439195224,0.06637419662038514,0.07711890629922125
0.05543437139745531,0.07253109512339559,0.08351199761970934
0.04736260112728119,0.06972156787547013,0.07284967023222863
0.05143614083105863,0.07260894096653711,0.06261785404478078
0.07259116214983558,0.0868830378407579,0.06907552204527381
0.09616976843522967,0.09957898716765533,0.0856717288065409
0.09579322274832588,0.08933872034713103,0.08773818256669867
0.05984337907683794,0.04989918545370888,0.059087662204511254
0.0009310947894348427,-0.009221193964853592,0.005151784027059997
-0.0589328231430524,-0.07419416540869152,-0.055076732857538356
-0.10187957030573452,-0.12979732809622388,-0.10225358519447357
-0.11949506216761577,-0.15840921389814488,-0.12643396426298636
-0.11207368899300275,-0.14813356260346536,-0.12713713255637338
-0.08564702805757267,-0.10801464580626276,-0.1116387293551901
-0.05570137652089618,-0.06677050273092375,-0.09685784482072828
-0.03371110840571445,-0.0418810636101332,-0.08773818256669867
-0.004094078559426735,-0.012979025120139284,-0.06153440085803139
0.04814307764195452,0.04018260885068203,-0.008459545080645873
0.0980182654436665,0.091921786960463,0.04140800225649477
0.11005403485415513,0.10973433125020705,0.06059445140462629
0.08548271721237828,0.1013411339805859,0.0588652314178276
0.05407880692460164,0.09237470822964998,0.0647058333649402
0.041700723253291376,0.09289132155231637,0.08861355534009883
0.04932748498439737,0.09329470455768603,0.10883323136830925
0.05082682144679612,0.07776799729837,0.10378907514125747
0.024995787325195667,0.040826606280307265,0.07561929228577341
-0.01891628605300346,-0.01181133747301661,0.030429966655656615
-0.06006246020376379,-0.06618312045994688,-0.022027823068348457
-0.08479124240551858,-0.10032913801974624,-0.05870737731114888
-0.08799530388680907,-0.10420019949232869,-0.06619827219172081
-0.0825525071397451,-0.09593438632966637,-0.05631086496429925
-0.0856538743427891,-0.09413685504258056,-0.046287129190200615
-0.09013819115955249,-0.09112209784455476,-0.0402814979497421
-0.08092309125823413,-0.07646584864945745,-0.035811356656067474
-0.06011038420027882,-0.05724500228833515,-0.03228116481579795
-0.047239367993385406,-0.050415798776375274,-0.037841934482889174
-0.0555370656757018,-0.06338774700168351,-0.060472473231283644
-0.06531356096476765,-0.07770430524489058,-0.08419364035309472
-0.055194751414880165,-0.07154740674188013,-0.0870063135266428
-0.03366318440919942,-0.0476487328974361,-0.07180209297881532
-0.014534663514486552,-0.024096826899713337,-0.055528769617572867
0.0009447873598677081,-0.008796580274990801,-0.04739928312361886
0.014774283497061695,0.0023636828735695316,-0.0462297276968629
0.023633376567125566,0.008570119640397313,-0.04624407807019733
0.0273919871509471,0.012434104218148704,-0.03805719008290561
0.03528575400549397,0.02387036626511985,-0.019337128068143028
0.04651366176044354,0.03839215445842727,-0.0018440229734741217
0.04100240216121524,0.03755708086836378,0.0019301252134806953
0.005148406482757366,0.010098728923903358,-0.013367372761020579
-0.043220598571339426,-0.03328263639041169,-0.038918212482971344
-0.07049619887360717,-0.06442805054184735,-0.050441562270517805
-0.06814107675915433,-0.06735080810706956,-0.038997139536310704
-0.05542067882702244,-0.051229641681945624,-0.020599960921572773
-0.041789724961105,-0.027536197787601937,-0.003788498560289246
-0.016280466244676883,0.0021230684493139503,0.01817474782805428
0.024742474772187658,0.03673616106796239,0.0482603055236846
0.06240388974778376,0.06507912486630363,0.07556906597910291
0.07799288118560094,0.07150494537289385,0.08617399187324591
0.07280339699154498,0.056424082487933756,0.08036926585946941
0.06351298795284585,0.041173374127028546,0.06820732445854086
0.06959248922503807,0.047938885585509,0.06037919580460986
0.08745444735471089,0.07132802300211769,0.06322774491149401
0.08988487860654448,0.08620365593697743,0.06880286495191966
0.0695171800876573,0.08200705730216686,0.06173530608471339
0.050046344932122795,0.06567358403211153,0.04136495113649148
0.03740125613737166,0.03987122547811599,0.01755050658800662
0.00595626813829642,-0.002158452923469183,-0.011674028707557961
-0.03507351916378455,-0.04529920381352866,-0.04498124521676758
-0.041871880383702195,-0.05645239006725794,-0.06103213779132637
-0.023640222852341998,-0.04258875309323785,-0.052995928724046154
-0.02830938936994908,-0.040083532323047386,-0.04792307175032552
-0.05806334492056545,-0.05384809276943283,-0.06472735892494183
-0.07896505368633439,-0.06268005751857886,-0.0863174956065902
-0.0743985814469738,-0.054223168195478295,-0.08533449503318183
-0.043603990543459654,-0.023148522992353107,-0.04930788277709791
0.006503970955611033,0.025979280924771708,0.007218237787217768
0.04500063272761192,0.06356466937245968,0.046846793750243344
0.04299467115919715,0.06444928122634049,0.04805940029700259
0.018724590066943346,0.043586595264415405,0.02661276734869851
0.011262139181031737,0.033353405338722164,0.014558453747778182
0.0274125260065964,0.03866107646200704,0.025357109681935976
0.039496219413600056,0.03355863528882251,0.034455246375963935
0.023071981179378087,0.004203675529641622,0.017191747254645895
-0.01311748247468499,-0.03161248921028472,-0.01479523490779626
-0.04613026978832331,-0.05594993053425364,-0.04545480753680374
-0.06503970955611034,-0.06593542914086026,-0.06966388735198539
-0.06382107078758532,-0.06120806339372119,-0.0745717150323601
-0.04606180693615899,-0.04892965086185551,-0.0603002687512705
-0.03175307083381471,-0.045249665549711326,-0.04991777364381114
-0.03191053539379266,-0.05348717113304946,-0.05278784831069694
-0.03500505631162023,-0.05895053394261736,-0.05110167944390153
-0.030397506360961044,-0.054223168195478295,-0.0315636461490765
-0.027357755724864936,-0.05433639851277504,-0.013704606534379658
-0.03482020661077655,-0.06885818670608246,-0.02076499021491871
-0.04533610070321712,-0.08594888772305975,-0.04170936009651778
-0.0521002304970526,-0.095269158215548,-0.056856179151007546
-0.05139506311976003,-0.0898057954059801,-0.05920246519118668
-0.0373259469999909,-0.06374159174323583,-0.0431085214966246
-0.008865939355280303,-0.02441528716711043,-0.012276744387603978
0.029651261272369882,0.014564249562293699,0.01684016310795239
0.0654710255247456,0.042284446615502846,0.03421846521594586
0.08499663096201156,0.05624008322232655,0.04398389427002477
0.08624950115661874,0.06190159908716375,0.05109450425723432
0.06906532526337275,0.05849761267343038,0.05062811712386538
0.03673716647137769,0.044053670323264474,0.03950657778968293
0.004217311693322523,0.028187272112058216,0.028155432482149623
-0.017410103305388273,0.021188223124153225,0.027502490495433105
-0.02633765922761647,0.023905750739275082,0.03764820444287438
-0.023653915422774865,0.03263156206595542,0.05377084888410532
-0.01578753370909373,0.039998609585074826,0.06643505335173888
-0.010159887261186077,0.0381232324548475,0.06846563117856058
-0.00575087958180344,0.03263156206595542,0.068178623711872
0.00500463449321228,0.03568170373813646,0.07185231928548581
0.021449411583083545,0.04118045102185959,0.06512199419163862
0.03063028005831975,0.0352924745224289,0.03683740834947915
0.025454488434696658,0.020777763223952528,0.0039033015469646776
0.016075077688183902,0.010098728923903358,-0.010396845480793783
0.01663647307593138,0.01124518588653289,-0.005022630667050137
0.026125424385907058,0.02031068816510346,0.006802076960519328
0.03172568569294898,0.02667989351304531,0.015103767934486482
0.02837100593689697,0.025257437652004965,0.017026717961299963
0.019641992285945323,0.013417792599664167,0.013647205041041943
0.006086347557408641,-0.0065602815083801065,0.006701624347178325
-0.006469739529528871,-0.01899438572652881,0.002475439400188996
-0.005696109300071979,-0.014918094303846025,0.005517718547087936
0.007257062329418627,-0.004366444110755692,0.009177063747367322
0.025194329596472213,0.00881781095948394,0.014099241801076455
0.04285089916965206,0.024974361858763103,0.025952650175314777
0.04697236286994453,0.0314567975240017,0.03274755194916689
0.03867466518762814,0.027281429573684263,0.027459439375429818
0.03736017842607307,0.027989119056788914,0.02025555196154648
0.042652356898375515,0.031081722097956233,0.012126065467592474
0.04266604946880838,0.027458351944460425,0.006235237213809384
0.045363485844082854,0.031223259994577163,0.021432282574969656
0.05311348070908463,0.0454124341308254,0.0502406570438358
0.04461724075549169,0.04334598084015982,0.05580142671092702
0.015000210909203974,0.016375934639041603,0.03390275700258842
-0.009701186151685089,-0.009652884549547427,0.017930791481368988
-0.012795707069512654,-0.015519630364484978,0.019451931054818457
-0.005367487609683211,-0.009716576603026847,0.021238552534954862
-0.0009105559337855447,-0.0042390600037968545,0.019179273961464308
-0.006681974371238283,-0.0044018285849109235,0.015971965521219433
-0.03093151660784279,-0.01774177534143358,-0.0008825479600673812
-0.06467685643963941,-0.03820815519282006,-0.03477812977598859
-0.07284447470284358,-0.03880261435862797,-0.0603002687512705
-0.034922900889023036,-0.004953826381732551,-0.04902805049707655
0.017642877002746984,0.04190937118945738,-0.007211062600550554
0.0465273543308764,0.07424370367250885,0.03274755194916689
0.05438004347412467,0.08600550288170813,0.05164699363060984
0.044891092164149,0.07621108043553977,0.045397406043466024
0.01134429460362893,0.045016128020286796,0.01817474782805428
-0.022455815509899148,0.005491670388892085,-0.007806603093929355
-0.02908301959940597,-0.027578659156588217,-0.016280498547909656
-0.027118135742289794,-0.053600401450346204,-0.020076172294866117
-0.04770491538810282,-0.07773261282421477,-0.03193675585577165
-0.07973183763057484,-0.09242424649346731,-0.044321128043383846
-0.09072012540294927,-0.08744918942724161,-0.04808810104367145
-0.0743780425913245,-0.06806557448500525,-0.041730885656519424
-0.05221661734573195,-0.048731497806586206,-0.030494543335661546
-0.043939458519064854,-0.04036660811628925,-0.023563313015132356
-0.04571949267533735,-0.04190937118945738,-0.022845794348410907
-0.04607549950659185,-0.04605643156045063,-0.02795452725546762
-0.04528133042148566,-0.04821488448391981,-0.03953527853635179
-0.045247098995403495,-0.0453062807083597,-0.051281059110581895
-0.051634683102335176,-0.043586595264415405,-0.06140524749802153
-0.06988003320412824,-0.05399670756088481,-0.07542556224575862
-0.08620842344532015,-0.07044341114823688,-0.09175628710033878
-0.08726275136865078,-0.07649415622878164,-0.10045978852766994
-0.07993722618706782,-0.06787449832456699,-0.09184238934034536
-0.0688051664251483,-0.05036626051255795,-0.06748980579181942
-0.04873185817056772,-0.02959557418343647,-0.04086268806978647
-0.026221272378937115,-0.01114610935889824,-0.021095048801610575
-0.00572349444093771,0.0034676784672127855,-0.004556243533681195
0.024092077676626557,0.015519630364484978,0.01015288913410849
0.05624907933821079,0.022320526297120665,0.01567778286786364
0.0665185071628598,0.022362987666106945,0.009672151627405121
0.058302964903140596,0.020077150635678925,-0.002253008613505347
0.04712982742992248,0.015371015573033001,-0.01584998734787679
0.0215657984317629,0.0006652281141183711,-0.030307988482313968
-0.018594510647831124,-0.01713316238596358,-0.0386455553896172
-0.03670978133051196,-0.01986484379074753,-0.033615749535899846
-0.015287754888294145,-0.007444893362260919,-0.023061049948427344
0.02348960457758048,0.008471043112762661,-0.013668730601043587
0.05757725867019873,0.024471902325758802,0.0014780884534461832
0.07854058400291555,0.04047983843358599,0.023721167121811073
0.08352467964047854,0.050776720412758644,0.04170936009651778
0.07359071979143474,0.049347187656887254,0.04461531069673964
0.05396242007592228,0.03986414858328494,0.034067786295934356
0.040283542213489815,0.035122629046483785,0.026842373322049373
0.04245381462709897,0.03945368868308424,0.033909932189255636
0.044007921371229185,0.041704141239357034,0.04270671104326059
0.027987613964776743,0.03579493405543321,0.03947070185634686
0.0013144867615550722,0.025696205131529846,0.02750966568210032
-0.014876977775308185,0.01798238976568916,0.018806164254769154
-0.005066251060160174,0.022943293042252757,0.024000999401832437
0.02373607084537206,0.04442166885447889,0.043725587550005045
0.05588622622173986,0.0734298607669385,0.06918314984528202
0.0845653149933763,0.09636607691436021,0.0906297827935861
0.10182480002400306,0.10385343164560741,0.10030193442099124
0.10372122102895491,0.09662792202310894,0.09465506251389344
0.0982715779966745,0.08245290167652279,0.07840326471265263
0.0888373969684303,0.06634588904106095,0.060178290577927854
0.07201607419165522,0.050762566623096556,0.04415609875003792
0.04890986158619497,0.04112383586321122,0.03169997469575358
0.023530682288879078,0.03687062206975227,0.021532735188310656
0.0011980999128757166,0.02641804840429659,0.008674800680662308
-0.007174906906821435,0.009475962178771266,-0.0026045927601988567
5.4770281731461334e-05,0.0003396909518902321,-0.002324760480177492
0.0015267216032644848,-0.004776904010956389,-0.0020377530134889125
-0.015034442335286138,-0.02057253327385218,-0.02064301204157606
-0.030226349230550224,-0.03527124383793576,-0.041077943669802906
-0.0287749367646665,-0.030579262564951932,-0.035689378482724826
-0.022702281777690726,-0.01899438572652881,-0.01762943364134598
-0.022161425245592545,-0.015625783786950675,-0.01037531992079214
-0.01942975744423591,-0.009943037237620335,-0.005654047093765011
-0.01298740305557277,0.0029156806703911587,0.006443317627158604
-0.013699416718081767,0.008655042378369872,0.014945913827807763
-0.022579048643794935,0.0016276858111406952,0.012908160814318852
-0.031917381679009094,-0.011492877205619518,0.004900652493707491
-0.042501738623614,-0.02876757748820403,-0.006974281440532476
-0.055461756538321035,-0.048858881913545045,-0.02181974265499924
-0.05814550034316264,-0.05667885070185143,-0.02534993449526876
-0.04094078559426735,-0.04026753158865459,-0.0036306444536105273
-0.017054096474133775,-0.016234396742420675,0.027516840868767534
-0.002341429544019972,-0.005937514763248015,0.04387626647001655
0.008592087946622997,-0.002951065144546391,0.046760691510236777
0.03238977535894295,0.01595839784400986,0.05720776329770106
0.07448073686957099,0.057018541653741664,0.08593721071322784
0.1191459016215777,0.09559469537777614,0.11253562768859192
0.1434775992807794,0.10553773261539648,0.1110431888618113
0.13680247119475755,0.0885885694950401,0.0841290636730898
0.09970245160690894,0.058426843725119915,0.047679115403640226
0.03809957722944779,0.016637779747790325,0.0014135117734412528
-0.03308125016580265,-0.03730938954927716,-0.05808313607110122
-0.09521813479014553,-0.09070456104952301,-0.11338229971532322
-0.14088970346896787,-0.12466657934371517,-0.14713437779790015
-0.17644930888311913,-0.13569945838531666,-0.16835140477285337
-0.2009453173875152,-0.1370299146135534,-0.18651897741424042
-0.19183291176444334,-0.12596165109779667,-0.18448122440075151
-0.14067746862725844,-0.0913273277946551,-0.1483972106513299
-0.08399022703519596,-0.05251055964636504,-0.09875926928754011
-0.054612817171483384,-0.03473339983077623,-0.06163485347137239
-0.04086547645688659,-0.030006034083637168,-0.034892932762664024
-0.02551610500164455,-0.01921376946629125,-0.005367039627076432
-0.012028923125272196,-0.004047983843358599,0.021934545641674668
-0.006729898367753312,0.0005095364278353481,0.030078382508963105
-0.008948094777877495,-0.011202724517546612,0.017572032148008263
-0.011830380853995648,-0.028222656586213448,0.00017220448001314755
-0.014767437211845263,-0.04265952204154831,-0.015369249841173419
-0.028124539669105397,-0.058773611571841196,-0.032582522655820956
-0.04409692307904281,-0.06682711788957212,-0.0429578425766131
-0.03925659943102491,-0.0519868694288676,-0.03903301546964678
-0.0174785661575526,-0.025682051341867754,-0.030186010308971323
-0.0006640896659939687,-0.006298436399631386,-0.02268794024173219
0.006298582399118053,0.004904288117915226,-0.014292971841091247
0.009352025605647024,0.012547334535445447,-0.006802076960519328
0.006942133209462725,0.015194093202256839,-0.007533946000575205
-0.0021086558466612616,0.015371015573033001,-0.013575453174369798
-0.006093193842625074,0.02360144426154008,-0.007835303840598213
0.002717975230923769,0.04018260885068203,0.010224641000780636
0.018341198094823114,0.05371363176764295,0.020578435361571133
0.03375903240222948,0.05776869250583259,0.01886356574810687
0.043610836828676086,0.052277022116940505,0.020922844321597425
0.043850456811251236,0.033990325873516344,0.02752401605543475
0.03334825528924352,0.003885215262244529,0.019710237774838178
0.017992037548785048,-0.021082069701687526,-0.0032862354935842323
0.013781572140678959,-0.0256891282366988,-0.01913622284146102
0.027857534545664524,-0.01353102291696091,-0.014809585281130688
0.046424660052629914,0.0055553624423715035,0.0036234692669433128
0.059083441417813916,0.025795281659164497,0.025163379641921186
0.06456046959096005,0.036276162903944364,0.03808589082957447
0.04949179582959175,0.025271591441667057,0.034254341149281935
0.01150175916360688,0.002795373458263368,0.022616188375060044
-0.01838227580612171,-0.009299039807995103,0.01818909820138871
-0.020853784769253904,-0.006071975765037898,0.023584838575134
-0.01555476001173502,0.001634762705971742,0.03469920272264923
-0.02159318357262863,0.0012384565954331377,0.04604317284351533
-0.03144498799907524,-0.006942433829256618,0.054560119417498915
-0.036223695080145245,-0.010615342246569752,0.06180705795138554
-0.04032461992478841,-0.00982980692032359,0.06137654675135267
-0.04749268054639341,-0.01765685260346102,0.04267083510992452
-0.05459227831583409,-0.03273063859359007,0.012900985627651637
-0.04746529540552768,-0.030692492882248675,-0.0036234692669433128
-0.014397737810157898,0.00014861479145197653,0.005309638133738716
0.026762128911035295,0.03266694654011065,0.020427756441559627
0.04550725783362794,0.03870353783099332,0.014687607107788042
0.035251522579411804,0.020119612004665204,-0.015103767934486482
0.012227465396548743,-0.009313193597657195,-0.05311073171072159
-0.001396642184152264,-0.031237413784239255,-0.07576997120578492
0.005429104176631105,-0.026757739356186822,-0.0647130085516074
0.020422468800618647,-0.0023070677149211595,-0.03147036872240271
0.026248657519802845,0.014323635138038119,-0.004793024693699273
0.023160982887191713,0.016206089163096488,0.0064217920671569605
0.02238735265773482,0.02200914292455462,0.013252569774345146
0.027056519175341902,0.036148778796985526,0.020700413534913777
0.029897727540161456,0.04215706250854401,0.02242963352171247
0.0280834619578068,0.0341955558236167,0.01687603904128846
0.025687262132055366,0.023488213944243337,0.011803182067567822
0.024489162219179652,0.017310084756739744,0.01250635036095484
0.021853342410853075,0.013849483184358004,0.015032016067814338
0.014575741225785149,0.012214720478386261,0.015641906934527567
0.004333698542001879,0.013785791130878584,0.01790209073470013
-0.005244254475787423,0.01565409136627486,0.021274428468290935
-0.010125655835103914,0.014309481348376027,0.020678887974912134
-0.006182195550438699,0.015208246991918932,0.019997245241526757
0.004354237397651176,0.02724604509952903,0.0276962205354479
0.020833245913604605,0.05122256478711458,0.04314439742996067
0.04267974203924125,0.07390401272061861,0.054294637510811976
0.0571938666980785,0.07866676294191291,0.052357337110664065
0.05743348668065364,0.06806557448500525,0.042103995363214575
0.05334625440644334,0.05556070131854608,0.033694676589239206
0.04551410411884437,0.03604970226935088,0.02640468693534929
0.02379768741231995,-0.0025901435081630195,0.003401038480259664
0.003909228858583053,-0.04268075272604145,-0.034548523802637725
0.009153483334370476,-0.05356501697619097,-0.0550480321108695
0.02209980867864465,-0.03794631008407134,-0.041730885656519424
0.017403257020171838,-0.01796115908119602,-0.013862460641058377
0.007421373174613011,0.0012879948592504633,0.005417265933746933
0.015102905187450463,0.02297867751640799,0.014056190681073168
0.04578110924228525,0.048582883015134234,0.029145608242225222
0.0891112483770876,0.07825630304171222,0.05855669839113738
0.12450654294604449,0.102876820158923,0.08831219750007584
0.13867150705884368,0.11473769589575693,0.1087112531949666
0.13672716205737678,0.11918198584965413,0.12212885226265768
0.12596480169714463,0.11909706311168157,0.1228822468627152
0.10017484528684278,0.1057995777241452,0.10594163114142181
0.05397611264635515,0.07186586700927722,0.07833868803264771
-0.0002943902643066047,0.022101142557358223,0.04205376905654407
-0.05252470018047142,-0.031039260728969956,-0.005202010333730499
-0.10577510659388471,-0.0809172154981857,-0.05588035376426638
-0.15513682300436424,-0.12858717908011494,-0.09906062712756313
-0.1944892704284192,-0.17585375965667452,-0.13686668567711624
-0.22501685620849246,-0.21561175481749376,-0.17597862820010235
-0.23706631818941395,-0.22883139436188862,-0.2035456953755404
-0.21493227808468715,-0.20336164986495225,-0.1973965604017376
-0.16203103221731194,-0.14962678741281618,-0.15531409059852466
-0.10222873085177259,-0.09006764051472882,-0.09576004126064447
-0.05134029283802857,-0.04163337229104657,-0.03740424809618909
-0.009742263862983686,-0.009836883815154638,0.00824428948062944
0.02127825445267273,0.014436865455334864,0.04140800225649477
0.04261812547229335,0.0425816761984068,0.07267029056554826
0.06135640810966956,0.06941018450290408,0.10007950363430758
0.08173095291377318,0.08642303967673988,0.11193291200854591
0.09848381283838392,0.09536823474318265,0.10773542780822544
0.09417065315203134,0.09054886936323998,0.08776688331336753
0.05487982229492426,0.0584551513044441,0.04991777364381114
-0.006517663526043899,0.008973502645766964,0.00608455829379788
-0.05950791110123274,-0.030770338725390187,-0.026985877055393664
-0.08250458314323007,-0.0507696435179276,-0.04330942672330661
-0.06801099734004211,-0.048901343282531325,-0.03732532104284973
-0.026118578100690626,-0.02370052078917473,-0.007907055707270358
0.00918771476045264,0.004776904010956389,0.01854068234808222
0.01778664899229207,0.019043923990346136,0.01769401032135091
0.025865265547682616,0.03344540497152577,0.010109838014105204
0.05572191537654548,0.05691946512610701,0.02315432737510113
0.08001253532444857,0.06314713257742793,0.037346846602851376
0.06413599990754122,0.028434963431144843,0.019143398028128235
0.01891628605300346,-0.02609251124206845,-0.017306550241321328
-0.02369499313407346,-0.06488804870586537,-0.04005189197639123
-0.05774156951539312,-0.08651503930954348,-0.058133362377771725
-0.08859777698585515,-0.10541034850843764,-0.08951762886016787
-0.11397010999795461,-0.12540965330097506,-0.12473344502285653
-0.1360356872505171,-0.14559295735911967,-0.15266644671832252
-0.15013218851115195,-0.15660460571622803,-0.16957118650627984
-0.14082808690201995,-0.1433141972235227,-0.1641610957592001
-0.10916401777601888,-0.10764664727504833,-0.1329849096901532
-0.07194076505427446,-0.07216309659218118,-0.09890994820755163
-0.0356075294106663,-0.04960195587080493,-0.0781880091126362
0.0033204483299698437,-0.024259595480827408,-0.05199140259063613
0.042440122056666106,0.01862638719531439,-0.00725411372055384
0.07191337991340874,0.06619727424960897,0.034627450855977085
0.07871174113332638,0.08921841313500324,0.05024783223050301
0.06338290853373363,0.07649415622878164,0.04395519352335591
0.050436583189459455,0.05342347907957004,0.039528103349684575
0.051579912820603716,0.04295675162445226,0.04445745659006092
0.04810884621587235,0.03513678283614588,0.04109946922980455
0.031759917119031145,0.015569168628302304,0.021991947135012384
0.017540182724500492,-0.006680588720507898,0.003659345200279385
0.014315582387560708,-0.01355225360145405,0.0008897231467345956
0.01658170279419992,-0.0062701288203072005,0.00938514416071654
0.01709517418543237,0.0016276858111406952,0.018834865001438012
0.009310947894348427,0.0031704488843088325,0.02172646522832545
-0.007414526889396578,-0.00015569168628302304,0.013697431347712445
-0.019416064873803044,-0.0010261497505017426,0.003329286613587519
-0.016533778797684893,0.0007996891159082547,0.00025113153335250683
-0.0036490700203586114,0.00256891282366988,0.0014780884534461832
0.01288470877732628,0.009928883447958241,0.0037239218802843158
0.026488277502377987,0.0199214589493959,0.007282814467222698
0.02969233898366848,0.023275907099311943,0.010899108547498797
0.02264066521074283,0.02172606713131276,0.012470474427618767
0.008427777101428613,0.015979628528503,0.010124188387439633
-0.009016557630041822,0.004423059269404063,0.004262060880325402
-0.013569337298969546,0.0024132211373868568,0.0040826812136450395
0.00852362509445867,0.024160518953192756,0.021704939668323806
0.04027669592827338,0.05318286465531446,0.04950878800377992
0.05619430905647933,0.06732250052774537,0.06667183451175696
0.059925534499435135,0.0699904898790499,0.06909704760527545
0.06594341920467944,0.07447016430710234,0.07106304875209223
0.07218723132206604,0.08630980935944313,0.0837918298997307
0.07650039100841863,0.10203466967402845,0.1015719424610882
0.08740652335819586,0.11100817231979541,0.1108925099417998
0.1031119016446924,0.11112847953192322,0.10815158863492387
0.10509047807224144,0.10628080657265636,0.0943465294872032
0.08516094180720594,0.0898977950387837,0.07061818717872492
0.058795897438723745,0.06147698539730096,0.04976709472379964
0.04168703068285851,0.036339854957423784,0.04353903269665747
0.031424449143425945,0.023650982525357408,0.0437542882966739
0.017122559326298102,0.0157814754732337,0.03583288221606912
0.0006777822364268341,0.005385516966426388,0.019573909228161105
-0.0038339197212022935,0.0013658407023919748,0.008466720267313087
0.006127425268707237,0.01472701814340777,0.012592452600961415
0.02092224762141823,0.037344774023432385,0.024445860975199737
0.03139706400256021,0.04619796945707156,0.025608241215288482
0.021983421829965294,0.021853451238271596,0.0032001332535776584
-0.01860820321826399,-0.03462016951347949,-0.0434529304566509
-0.0699142646302104,-0.09686853644736451,-0.09616185171400847
-0.10048977440679868,-0.1317363972799306,-0.12360694071610387
-0.10365275817679058,-0.12863671734393226,-0.11520479712879571
-0.0929246292426406,-0.10695311158160578,-0.09622642839401341
-0.0845653149933763,-0.08974918024733174,-0.09148363000698463
-0.08444208185948052,-0.08308982221131697,-0.09529365412727553
-0.08472277955335425,-0.08269351610077837,-0.09380839048716212
-0.07870489484810994,-0.08463966217931616,-0.08991943931353187
-0.07021550117973344,-0.08747042011173475,-0.08679823311329357
-0.061952034923499204,-0.08558088919184534,-0.0742703571923371
-0.051408755690192896,-0.07344401455660059,-0.05235016192399685
-0.03879105203630749,-0.05473978151814469,-0.034082136669268785
-0.027316678013566343,-0.0348820146222282,-0.021288778841625364
-0.019696762567676784,-0.018173465926127414,-0.009887407227421555
-0.0137062630032982,-0.007147663779356966,-0.0010404020667460997
-0.00846885481272721,-0.0006156898503010456,0.0033005858669186614
-0.0067230520825368794,0.0005803053761458131,0.0030853302669022267
-0.005066251060160174,-0.002441528716711043,0.002324760480177492
-0.00043131596863525804,-0.002299990820090113,0.005905178627117518
0.0035258368864628234,0.005859668920106503,0.013073190107664785
0.006182195550438699,0.021209453808646365,0.022967772521753554
0.013802110996328257,0.04103183623040761,0.038064365269572825
0.0335331049900872,0.061547754345611425,0.05402198041745783
0.06354037309371158,0.07976368164072511,0.06403136581822202
0.08820069244330205,0.09127778953083777,0.06791314180518507
0.0897616454726487,0.08700334505288569,0.06626284887172573
0.06694297684627862,0.06640958109454037,0.063026839684812
0.03992068909701888,0.0441952082198854,0.06412464324489582
0.026193887238071385,0.030713723566741815,0.06205101429807083
0.021045480755314018,0.020883916646418227,0.045397406043466024
0.016930863340237984,0.006652281141183711,0.02012639860153662
0.017437488446254003,-0.00853473516624208,0.00012197817334264618
0.016800783921125766,-0.01879623267125951,-0.013051664547663142
-0.0013076404763386394,-0.029538959024788095,-0.025414511175273692
-0.02892555503942802,-0.04251090725009633,-0.03849487646960569
-0.03473805118817935,-0.046919812729838306,-0.048066575483669806
-0.008913863351795332,-0.036212470850464945,-0.044988420403434794
0.015383602881324203,-0.02605712676791322,-0.03508666280267881
-0.0024509701074828948,-0.03987122547811599,-0.042728236603262235
-0.05056666260857168,-0.06780372937625653,-0.06347887644484651
-0.07880758912635644,-0.07681261649617872,-0.0639667891382171
-0.07274862670981352,-0.058363151671640495,-0.039937088989715805
-0.05408565320981807,-0.02955311281445019,-0.012556576667625342
-0.03284847646844394,-0.0071193562000327806,0.007376091893896487
-0.005963114423512853,0.006616896667028479,0.020987421001602356
0.020223926529342098,0.018859924724738925,0.032582522655820956
0.029089865884622403,0.027918350108478446,0.03733967141618416
0.019409218588586612,0.02662327835439694,0.028707921855525138
0.005216869334921693,0.01527193904539835,0.013439124627692723
-0.010632280941119933,0.0014083020713782537,0.0003444089600262951
-0.025023172466061398,-0.0018187619715789509,-0.0070603836805390495
-0.028172463665620425,0.00817381352985871,-0.009241640427372251
-0.02743991114746213,0.012971948225308238,-0.013747657654382945
-0.038647280046762406,-0.0014578403351955794,-0.028385038455500486
-0.060884014429735706,-0.028265117955199728,-0.0503411096571768
-0.07552137222246876,-0.048561652330641095,-0.06576058580502071
-0.06564902894037285,-0.04599981640180226,-0.062524576618107
-0.0349365934594559,-0.02474082432933857,-0.04328790116330496
-0.0028685935056852875,-0.003446447782719646,-0.02129595402829258
0.01452781722927012,0.007388278203612548,-0.008251464667296654
0.017156790752380264,0.009136271226881033,-0.005510543360420722
0.01458258751100158,0.007388278203612548,-0.0064217920671569605
0.014028038408470535,0.010502111929273007,-0.0016287673734576872
0.02130563959353846,0.02647466356294496,0.018390003428070716
0.040502623340415655,0.05321117223463864,0.05007562775048986
0.06749752594880966,0.08053506317730919,0.07854676844599692
0.09343810063387305,0.09976298643326253,0.09656366216737249
0.11392218600143958,0.10831895228399775,0.1070753106348417
0.12984664541486196,0.11276324223789495,0.11499671671544649
0.13938352072135268,0.11993213670174506,0.1217916184892986
0.13355048571695205,0.1215810531973789,0.12029917966251799
0.10083893495283676,0.10025836907143579,0.09698699818073814
0.0377024926868947,0.05215671490481272,0.04937963464377006
-0.03521044486811321,-0.003991368684710226,-0.003695221133615458
-0.08866623983801947,-0.048137038640778305,-0.045067347456774154
-0.12235680938808463,-0.08011752638227744,-0.07601392755247022
-0.14080754804637066,-0.10191436246190066,-0.09438240542053929
-0.1296481031435854,-0.10526173371698566,-0.09385144160716541
-0.09481420396237601,-0.09061963831155045,-0.0801683606327874
-0.061000401278415065,-0.06670681067744433,-0.05754499707106014
-0.03421773351173047,-0.03796754076856448,-0.0268064973887133
-0.012638242509534704,-0.008973502645766964,0.004226184946989329
-0.003067135776961835,0.012243028057710447,0.027437913815428174
0.0014924901771823215,0.02330421467863613,0.03969313264303051
0.019066904327764977,0.030105110611271815,0.040683308403106105
0.04195403580629938,0.03382755729240228,0.0340390855492655
0.045705800104904486,0.028144810743071937,0.023807269361817648
0.02580364898073472,0.011082417305418821,0.008122311307286793
-0.0017252638745410321,-0.012611026588924866,-0.012477649614285982
-0.021182406459642672,-0.03571708821229169,-0.03173585062908965
-0.023421141725416154,-0.04599273950697121,-0.04127884889648491
-0.010892439779344374,-0.03769861876498471,-0.03451264786930165
-0.0024509701074828948,-0.023693443894343687,-0.018354127494734643
-0.006065808701759343,-0.011931644685144401,-0.005072856973720638
-0.0025810495265951154,0.008067660107393012,0.008079260187283506
0.020963325332716828,0.040550607381896454,0.030107083255631963
0.045144404717157006,0.06679173341541687,0.050750095297208024
0.04128309985508898,0.06408835958995712,0.05058506600386209
0.016465315945520566,0.039977378900581687,0.03515123948268374
0.008037538844091951,0.02382790489613357,0.02510597814858347
0.023989383398380065,0.01988607447524067,0.019207974708133166
0.03703840302090073,0.007529816100233478,0.0023319356668447064
0.029760801835832806,-0.023474060154581245,-0.025931124615313134
0.0022250426953406167,-0.0662326587237642,-0.05759522337773064
-0.03178730225989687,-0.09625992349189451,-0.08071367481949569
-0.05041604433381016,-0.08813564822585312,-0.0787333232993445
-0.05331886926557761,-0.053133326391497135,-0.05642566795097468
-0.05565345252438115,-0.022830062724956014,-0.0357754807227314
-0.051744223665798096,-0.0045433664815318535,-0.019710237774838178
-0.029815572117564266,0.010919648724304752,0.0017148696134642609
-0.0028480546500359895,0.02471959364484543,0.02501270072190968
0.016253081103811153,0.038583230618865524,0.044227850616710064
0.03371795469093088,0.05983514579649817,0.06511481900497142
0.053818648086377194,0.08530489029343452,0.08765925551335932
0.07524067452859501,0.10383220096111427,0.0994983135142632
0.0934107154930073,0.10977679261919333,0.09496359554058366
0.09920951907132577,0.10526173371698566,0.08494703495315224
0.08897432267275894,0.09243132338829836,0.08257204816630424
0.06702513226887581,0.06868834123013734,0.08202673397959595
0.04549356526319507,0.04150598818408773,0.06963518660531653
0.03518305972724747,0.022419602824755316,0.04561983683014967
0.030863053755678462,0.007756276734826965,0.018827689814770798
0.01999799911719982,-0.00801104494874464,-0.0008825479600673812
-0.0025810495265951154,-0.02553343655041578,-0.01188210912090718
-0.033067557595369786,-0.048816420544558765,-0.02589524868197706
-0.06583387864121652,-0.08161075119162825,-0.05163981844394262
-0.09769649003849416,-0.11854506531485995,-0.0866619045666165
-0.12011122783709471,-0.14196958720562386,-0.11845515668904387
-0.1258894925597639,-0.1412902053018434,-0.13136331750336272
-0.12473247035818676,-0.12952840609264413,-0.12690752658302254
-0.1268753576309302,-0.12313797006020913,-0.11954578506246047
-0.12211718940550949,-0.11755430003851343,-0.10891933360831582
-0.09577268389267658,-0.096790690604223,-0.08224198957961239
-0.052757473877830134,-0.05926899421001445,-0.041745236029853854
-0.010769206645448585,-0.021004223858546014,-0.005869302693781445
0.020600472216245894,0.005243979069805458,0.016266148174575227
0.04226896492625529,0.022943293042252757,0.030186010308971323
0.054332119477609644,0.03915645910018029,0.037971087842899036
0.05429104176631105,0.050097338508978184,0.03549564844271004
0.04478839788590251,0.04912072702229377,0.022910371028415838
0.03833919721202293,0.03859030751369657,0.006113259040466738
0.04348075740956387,0.026863892778652518,-0.008552822507319662
0.04764329882115493,0.01925623083527753,-0.015634731747860356
0.035997767668002965,0.01440148098117963,-0.011917985054243253
0.013672031577216037,0.010650726720724984,-0.0006098908667132309
-0.0013829496137193987,0.013304562282367422,0.01389833657439445
0.0001916959860601147,0.02032484195476555,0.02669169440203787
0.004148848841158196,0.013085178542604981,0.023886196415157008
-0.0010200964972484673,-0.010070421344579172,0.0023606364135135643
0.0013418719024208027,-0.020926378015404503,-0.01037531992079214
0.024988941039979236,-0.0021655298183002295,0.011049787467510301
0.05301078643083814,0.029694650711071118,0.05046308783051945
0.05927513740387403,0.04598566261214017,0.068178623711872
0.04031777363957198,0.0411662972321975,0.05408655709746276
0.018279581527875222,0.037861387346098785,0.037174642122838226
0.013336563601610835,0.04666504451592063,0.03502208612267388
0.018012576404434346,0.046275815300213075,0.027789497962121684
0.01134429460362893,0.021372222389760435,-0.0010691028134149577
-0.009516336450841408,-0.012915333066659864,-0.03678718204280865
-0.03199953710160629,-0.03961645726419832,-0.06153440085803139
-0.045014325298044784,-0.05627546769648178,-0.07255548757887283
-0.0417281083941571,-0.05758469324022538,-0.06916162428528039
-0.03119167544606723,-0.04662258314693435,-0.059618626017885125
-0.03579922539672642,-0.04709673510061447,-0.06213711653807741
-0.05006003750255566,-0.05931145557900073,-0.06995089481867398
-0.04326167628263802,-0.05260255927916865,-0.0588150051111571
-0.013692570432865335,-0.02109622349134962,-0.02578044569530163
0.013541952158103816,0.012009490528285913,0.014185344041083028
0.02230519723513763,0.03044480156316205,0.042039418683209644
0.009660108440386493,0.03199464153116123,0.048640590417046964
-0.016670704502013543,0.021067915912025434,0.04262778398992123
-0.03660708705226547,0.006751357668818362,0.03207308440244873
-0.030020960674057247,0.00271045072029081,0.023017998828424056
0.000965326215517006,0.01703408585832893,0.02357048820179957
0.032026922242472014,0.038243539666975294,0.031011156775700988
0.043720377392139013,0.04692688962466935,0.03663650312279714
0.036956247598303536,0.04260998377773099,0.04160890748317678
0.024407006796582458,0.03849123098606192,0.05100840201722775
0.01458258751100158,0.033905403135543785,0.056167361230954956
0.005340102468817481,0.01858392582632811,0.04298654332328196
-0.004251543119404687,-0.0015639937576612769,0.018332601934733
0.002218196410124184,-0.002314144609752206,0.009421020094052613
0.04274135860618914,0.027599889841081356,0.028621819615518566
0.09430757885635999,0.059523762423932126,0.05110167944390153
0.11350456260323719,0.0653480468698834,0.05528481327088758
0.10485770437488273,0.06299851778597595,0.059302917804527684
0.10580933801996686,0.07652954070293687,0.08252182185963375
0.11973468215019091,0.09536823474318265,0.10951487410169462
0.11799572570521702,0.09773899451158323,0.11269348179527064
0.08974795290221584,0.07829168751586744,0.08832654787341027
0.04913578899833725,0.04314782778489052,0.048784094150391255
0.008578395376190132,-0.0019036847095515088,-0.0057832004537748715
-0.022982979471564465,-0.04212167803438878,-0.06520092124497799
-0.038304965785940774,-0.056247160117157594,-0.09342093040713255
-0.05109382657023699,-0.05173917810978097,-0.08728614580666416
-0.0839970733204124,-0.06568066092694258,-0.09662823884737741
-0.1281145352551045,-0.11067555826273623,-0.1440920986510012
-0.14859862062267104,-0.14870679108478013,-0.18355562532068084
-0.1254924080172108,-0.13759606620003711,-0.16820072585284188
-0.07276916556546281,-0.08474581560178185,-0.11039742206176201
-0.0229487480454823,-0.02878173127786612,-0.047521261296961506
0.008407238245779314,0.012299643216358819,0.005022630667050137
0.0297813406914821,0.04030999295764087,0.04262778398992123
0.04674643545780225,0.054180706826492016,0.05916658925785061
0.05803595977969972,0.05787484592829829,0.06011371389792292
0.06846285216432667,0.0625951347806063,0.0607451303246378
0.08236765743890141,0.07185171321961513,0.06720279832513083
0.09474574111021168,0.08209198004013941,0.07193124633882517
0.09308209380261855,0.08503596828985475,0.06932665357862632
0.0640264593440783,0.06481020286272386,0.054187009710803764
0.005524952169661162,0.01472701814340777,0.015060716814483196
-0.06018569333765958,-0.04553981823778424,-0.03802848933623675
-0.09402688116248625,-0.08092429239301674,-0.0676835358318342
-0.07834888801685544,-0.07199325111623606,-0.05541396663089744
-0.041981420947165116,-0.03978630274014343,-0.024811795495227676
-0.025913189544197645,-0.022334680086782757,-0.01043989660079707
-0.037346485855640196,-0.03060757014427612,-0.02049233312156456
-0.06135640810966956,-0.05297055781038306,-0.039528103349684575
-0.08815276844678702,-0.07789538140532884,-0.05698533251101741
-0.11517505619604676,-0.10125621124261334,-0.07591347493912921
-0.1383634242241042,-0.12250104952541493,-0.09520755188726895
-0.1499336462398754,-0.13670437745132527,-0.10698203320816792
-0.14928324914431432,-0.140164979023707,-0.11258585399526243
-0.1328932423361745,-0.12504873166459168,-0.10773542780822544
-0.09430073257114356,-0.08607627183001859,-0.08069932444616126
-0.05387341836810866,-0.047408118473180515,-0.04600012172351204
-0.03676455161224342,-0.03183187295004716,-0.026411862122016506
-0.031711993122516116,-0.024443594746434615,-0.014127942547745314
-0.01663647307593138,-0.006864587986115106,0.008029033880613004
0.003703840302090073,0.01600085921299614,0.035847232589403547
0.01675970620982717,0.03424509408743402,0.053907177430782396
0.033971267243938896,0.04878103607040354,0.0613406708180166
0.06906532526337275,0.06559573818897002,0.07183796891215138
0.10515894092440577,0.08243167099202965,0.08881446056678084
0.11807788112781421,0.09126363574117569,0.10101945308771268
0.10860946867348784,0.09057010004773312,0.1015791176477554
0.08930294436314772,0.08374089653577325,0.09276798842041603
0.06152071895486395,0.06684834857406526,0.0710486983787578
0.025789956410301858,0.03951030384173262,0.037798883362885886
-0.005121021341891635,0.019475614575039973,0.016725360121276955
-0.025454488434696658,0.012603949694093819,0.011516174600879243
-0.04137894784811904,0.0014436865455334862,-0.00531681332040593
-0.05164152938755161,-0.02000638168736846,-0.03756927738953502
-0.052764320163046566,-0.0430841357314111,-0.06827190113854578
-0.0482868496314996,-0.05682038859847236,-0.08623856855325085
-0.0359635362419208,-0.045546895132615284,-0.07658794248584737
-0.014520970944053687,-0.010940879408797892,-0.03804283970957118
0.0017321101597574649,0.020232842321961948,0.0011408546800871025
0.0068599777868655325,0.03244048590551716,0.019545208481492247
0.013494028161588787,0.033969095189023205,0.022903195841748623
0.027857534545664524,0.03403986413733367,0.022099574935020603
0.046828590880399444,0.03433001682540658,0.021123749548279433
0.06476585814745303,0.033990325873516344,0.023254779988442133
0.07382349348879345,0.029673420026577982,0.031068558269038704
0.07830781030555685,0.027522043997939845,0.04219009760322115
0.09069274026208354,0.04248259967077215,0.05235016192399685
0.10651450539725943,0.06739326947605584,0.0597549545645622
0.11156021760177032,0.08113659923794814,0.06656420671174874
0.1018316463092195,0.08083936965504418,0.07107739912542665
0.07788334062213802,0.06919080076314164,0.06177835720471668
0.03957152855098082,0.04113798965287331,0.03249642041581439
-0.003005519210013941,0.007112279305201734,-0.001879898906810194
-0.028138232239538263,-0.002880296196235926,-0.016531630081262166
-0.02780276426393306,0.018520233772848695,-0.008201238360626152
-0.016383160522923372,0.043777671424853656,0.004219009760322115
0.0008831707929198141,0.05703269544340375,0.01582128660120793
0.025837880406816886,0.06209975214243305,0.029841601348945028
0.041064018728163135,0.05369240108314981,0.03312783684252926
0.03715478986958008,0.035894010583067855,0.024431510601865308
0.031705146837299684,0.028916192279656003,0.023513086708461854
0.03180784111554617,0.02825804106036868,0.028736622602193996
0.022852900052452243,0.011103647989911961,0.01948780698815453
0.000575087958180344,-0.021025454543039154,-0.004025279720307324
-0.023941459401865036,-0.050805027992082835,-0.027933001695465975
-0.04324798371220516,-0.07281417091663746,-0.051596767323939335
-0.05331886926557761,-0.08691134542008208,-0.07572692008578163
-0.05544121768267174,-0.09108671337039952,-0.08803954040672168
-0.06773029964616838,-0.09630946175571184,-0.08920192064681043
-0.10597364886516125,-0.11964198401367215,-0.1025190671011605
-0.15218607407608176,-0.1496763256766335,-0.1294116667298804
-0.16847338660597508,-0.15189139375875105,-0.13654380227709156
-0.14492901174666312,-0.11820537436296971,-0.10780000448823036
-0.10517947978005507,-0.07435693398980558,-0.06482063635161563
-0.068784627569499,-0.04047983843358599,-0.031664098762417506
-0.04459670189984239,-0.01944023010088474,-0.014271446281089603
-0.03840081377897083,-0.010282728189510567,-0.00934926822738047
-0.041981420947165116,-0.00912211743721894,-0.009865881667419911
-0.04063954904474431,-0.007975660474589407,-0.00815101205395565
-0.03208853880941991,-0.004812288485111621,-0.0034082136669268785
-0.021627414998710796,-0.003729523575961506,0.00269069500020543
-0.010454277525492682,-0.003149218199815693,0.009485596774057544
0.0009105559337855447,-0.0005803053761458131,0.012097364720923615
0.007791072576300375,-0.0009978421711775566,0.007168011480547266
0.010789745501097884,-0.005251055964636504,0.0008036209067280219
0.01999799911719982,-0.005088287383522435,0.0011910809867576038
0.03399865238480462,0.0007147663779356967,0.00635721538715203
0.035251522579411804,0.004437213059066156,0.010561874774139716
0.022989825756780897,0.00845688932310057,0.017622258454678765
0.019422911159019476,0.020211611637468808,0.030910704162359984
0.030637126343536186,0.02981495792319891,0.037590802949536664
0.03382064896917737,0.023438675680426013,0.0241301527618423
0.02034715966323789,0.009391039440798707,0.001298708786765821
0.016725474783745007,0.006340897768617665,-0.005776025267107657
0.03347833470835574,0.01705531654282207,0.00587647788044866
0.03959206740663011,0.02605004987308217,0.012039963227585899
0.014815361208360292,0.019956843423551134,0.002712220560207074
-0.016725474783745007,0.006815049722297781,-0.0050585066003862094
-0.02168903156565869,0.005222748385312318,0.0019014244668118375
-0.0024578163926993273,0.014627941615773118,0.015254446854497986
0.014137578971933457,0.01905100088517718,0.020406230881557984
0.022832361196802944,0.02093345491023555,0.022372232028374753
0.03752448927126745,0.03332509775939797,0.032596873029155385
0.05594784278868776,0.04567427923957412,0.04272106141659502
0.06551210323604419,0.04269490651570354,0.042663659923257304
0.06532040724998407,0.03452816988067588,0.039779234883037085
0.06275305029382183,0.03592939505722309,0.0430582951899541
0.06013092305592811,0.04276567546401401,0.04649520960354984
0.052538392750904286,0.04798134695449528,0.0434529304566509
0.0386678189024117,0.05032379914357167,0.03635667084277577
0.024776706198269823,0.04175367950317436,0.019466281428152887
0.014356660098859303,0.021534990970874503,-0.006730325093847183
0.005299024757518885,0.0062772057151382465,-0.02094436988159907
-0.0017389564449738974,0.003927676631230809,-0.01574235954786857
-0.004128309985508899,0.0068362804067909205,-0.004663871333689413
-0.0038544585768515915,0.007812891893475338,0.003121206200238299
-0.002738514086573067,0.006807972827466735,0.006751850653848827
0.003060289491745402,0.009320270492488243,0.011300919000862808
0.013877420133709016,0.016460857377014162,0.021209851788286008
0.02235996751686909,0.02265314035417985,0.031283813869055134
0.024701397060889065,0.025016823227749382,0.036019437069416696
0.024680858205239766,0.028052811110268333,0.03819351862958268
0.02456447135656041,0.03386294176655751,0.039047365842981206
0.019833688272005438,0.036262009114282276,0.03574677997606254
0.004011923136829543,0.030296186771710074,0.028026279122139765
-0.025700954702488232,0.009199963280360452,0.011394196427536595
-0.06181510921917055,-0.02764942810489868,-0.01700519240129832
-0.08170356777290745,-0.0522911759066026,-0.03751905108286452
-0.0681342304739379,-0.036665392119651925,-0.029145608242225222
-0.03432042778997696,0.0015215323886749977,-0.003702396320282672
-0.007236523473769329,0.023580213577046944,0.013675905787710801
0.008954941063093929,0.024018981056571825,0.0173424261746574
0.027344063154432073,0.02137929928459148,0.01604371738789158
0.04628088806308483,0.020254073006455087,0.014350373334428962
0.05628331076429296,0.017734698446602533,0.014113592174410884
0.061623413233110436,0.021237761387970552,0.019997245241526757
0.07224884788901394,0.03430878614091344,0.03009990806896475
0.08388068647173304,0.04365736421272587,0.03490728313599845
0.08038908101135238,0.040055224743723195,0.03152777021574043
0.06186303321568558,0.03381340350274018,0.027459439375429818
0.047006594296026695,0.03532078210175309,0.02955459388225645
0.044007921371229185,0.042348138668982266,0.03451264786930165
0.04782814852199861,0.04982133961056737,0.03820786900291711
0.053839186942026496,0.05333855634159748,0.04339552896331318
0.05114175056675202,0.04472597533221389,0.042979368136614744
0.030137347522736602,0.020438072272062294,0.02589524868197706
0.000349160546038066,-0.010778110827683821,-0.00012197817334264618
-0.023195214313273878,-0.03641062390573425,-0.02294624696175191
-0.03578553282629355,-0.05017518435211969,-0.04160890748317678
-0.03992753538223531,-0.0532960949726112,-0.051582416950604906
-0.03976322453704093,-0.04942503350002877,-0.045196500816784016
-0.042481199767964696,-0.04741519536801156,-0.03578983109606583
-0.0606307018767277,-0.06350805421381131,-0.05031958409717516
-0.09532767535360846,-0.10092359718555416,-0.09073023540692711
-0.12571833542935307,-0.13555792048869572,-0.12532181032956813
-0.12782699127601432,-0.13712899114118807,-0.12163376438261989
-0.09474574111021168,-0.09990452432988346,-0.07920688561938066
-0.04632881205959986,-0.04945334107935295,-0.031039857522369846
-0.015465758303921395,-0.01863346409014544,-0.008739377360667239
-0.007352910322448685,-0.011315954834843356,-0.006608346920504537
0.0036353774499257464,-0.0035242936258611576,0.0006672923600509467
0.0267210511997367,0.015073785990129047,0.01638095116125066
0.04066008790039361,0.02767065878939182,0.025328408935267117
0.028145078524754695,0.01968084452514032,0.02118115104161715
-0.0021223484170941266,-0.004479674428052435,0.008624574373991806
-0.02641296836499723,-0.029829111712861005,-0.0059338793737863755
-0.02887078475769656,-0.040125993692033665,-0.015907388841214506
-0.013439257879857325,-0.03187433431903344,-0.019466281428152887
0.004039308277695274,-0.020728224960135204,-0.0220493486283501
0.008003307418009788,-0.02143591444323985,-0.02787560020212826
-0.006011038420027882,-0.029864496187016237,-0.03248207004247996
-0.026426660935430096,-0.03447155472202751,-0.0324533692958111
-0.03979745596312309,-0.0336789425009503,-0.03296998273585054
-0.03848981548678446,-0.025370667969301708,-0.031664098762417506
-0.018211118675710895,2.8307579324186007e-05,-0.014407774827766678
0.011809841998346352,0.03638939322124111,0.01830390118806414
0.03222546451374857,0.05957330068774945,0.04328790116330496
0.029918266395810755,0.055348394473614684,0.04488079260342658
0.007859535428464702,0.03372140386993658,0.03303455941585547
-0.0068052075051340715,0.020558379484190085,0.02714373116207238
0.013411872738991595,0.035080167677497505,0.03911194252298614
0.055133134847932266,0.06716680884146234,0.06290486151146936
0.0785679691437813,0.08413012575148081,0.07577714639245213
0.06715521168798803,0.06701819405001037,0.06358650424485474
0.03776410925384259,0.031647873684439956,0.036873284282815215
0.01006403926815602,0.0028449117220806937,0.015519928761184923
-0.01961460714507959,-0.02010545821500311,0.0011982561734248183
-0.06177403150787195,-0.04943918728969086,-0.01994701893485626
-0.10609688199905704,-0.0813276753983864,-0.050441562270517805
-0.13728171115990784,-0.10745557111461007,-0.08658297751327715
-0.15324040199941238,-0.12775918238488249,-0.12448231348950403
-0.15073466161019802,-0.13607453381136214,-0.1437476896909749
-0.12474616292861963,-0.12322996969301273,-0.12608955530296007
-0.08312759509792544,-0.09329470455768603,-0.08468872823313252
-0.040447853058684195,-0.05892930325812422,-0.04510322339011023
-0.010406353528977653,-0.03583739542441948,-0.020951545068266283
0.0016157233110781094,-0.02892326917448705,-0.011451597920874312
0.011768764287047755,-0.017564852970657418,-0.0021812567468332024
0.03515567458638175,0.014054713134458352,0.0173424261746574
0.05455120060453549,0.04834226859087865,0.03954962890968622
0.050683049457251036,0.06465451117644083,0.05489735319085799
0.03783941839122335,0.06822834306611932,0.0639667891382171
0.034121885518700414,0.0677824986917634,0.06644222853840609
0.04076962846385653,0.0625951347806063,0.06126891895134445
0.05503728685490221,0.058511766463092474,0.05771720155107329
0.06563533636993998,0.057719154242015264,0.060802531817975514
0.064005920488429,0.05339517150024585,0.062926387071471
0.05927513740387403,0.04944626418452191,0.06169943015137732
0.05598207421476992,0.04980010892607423,0.05771720155107329
0.042645510613159084,0.04137860407712889,0.039233920696328785
0.007332371466799386,0.011386723783153821,-0.004025279720307324
-0.044007921371229185,-0.031343567206704954,-0.05533503957755808
-0.08450369842642841,-0.06507912486630363,-0.08672648124662143
-0.0897616454726487,-0.07616861906655349,-0.09136165183364199
-0.060096691629845954,-0.0613000630265248,-0.0758632486324587
-0.02492732447303134,-0.03528539762759786,-0.051108854630568745
-0.01201523055483933,-0.023820828001302523,-0.03280495344250461
-0.008386699390130018,-0.02265314035417985,-0.021016121748271215
0.010461123810709115,-0.006468281875576502,-0.0012484824800953196
0.03996861309353391,0.024599286432717637,0.029167133802226866
0.061157865838393013,0.04583704782068819,0.054108082657464404
0.062581893163411,0.04137860407712889,0.05471079833751042
0.04100240216121524,0.01468455677442149,0.02659841697536408
0.0010543279233306308,-0.021782682289961133,-0.018016893721375563
-0.036175771083630216,-0.047323195735207955,-0.05525611252421872
-0.04832108105758177,-0.04730904194554586,-0.06791314180518507
-0.03814065494074639,-0.03038110950968263,-0.05870020212448167
-0.02215457896037611,-0.010042113765254986,-0.03777735780288424
-0.00874955250660095,0.0058384382356133635,-0.019028595041452805
-0.0007257062329418627,0.012186412899062075,-0.013518051681032083
-0.000123233133895788,0.015689475840430095,-0.014472351507771609
0.0031150597734768636,0.030154648875089143,-0.007024507747202977
0.025050557606927128,0.054952088363076086,0.013087540480999213
0.05479766687232707,0.06942433829256618,0.035251692096024745
0.06436877360489994,0.06367789968975641,0.04846838593703382
0.05390080350897439,0.05160471710799109,0.05298875353737894
0.04177603239067214,0.04152014197374982,0.05141738765725897
0.02949379671239193,0.03137895168086019,0.0442996024833822
0.01530144745872701,0.025257437652004965,0.036392546776111846
0.00829085139709996,0.02712573788740124,0.0320587340291143
0.007414526889396578,0.02898696122796647,0.02618225614866564
0.0034094500377834683,0.020218688532299856,0.012556576667625342
-0.004943017926264386,0.002752912089277089,-0.006063032733796237
-0.015335678884809174,-0.012639334168249052,-0.020499508308231773
-0.02472193591653836,-0.021549144760536598,-0.02688542444205266
-0.03285532275366037,-0.03290756096436623,-0.035581750682716615
-0.041858187813269325,-0.05021056882627493,-0.050750095297208024
-0.049094711287038656,-0.05948837794977689,-0.05789658121775365
-0.04772545424375212,-0.04963734034496016,-0.04844686037703218
-0.03309494273623551,-0.023877443159950894,-0.03188652954910116
-0.013185945326849318,0.0030572185670120888,-0.021095048801610575
-0.002019654138847637,0.015668245155936955,-0.01691191497462453
0.0027042826604909034,0.015144554938439513,-0.010224641000780636
0.012179541400033715,0.01183256815750975,0.0018296726001396926
0.01987476598330403,0.007168894463850106,0.012269569200936763
0.013808957281544689,-0.0016843009697890673,0.015426651334511134
0.0014924901771823215,-0.008605504114552546,0.013812234334387876
-0.002177118698825588,-0.0014649172300266258,0.01627332336124244
0.008195003404069902,0.02295744683191485,0.028894476708872716
0.026994902608394006,0.054541628462875386,0.047255779390274574
0.041242022143790386,0.07655784828226105,0.06099626185799031
0.04845116047669398,0.07892153115583059,0.06640635260507002
0.05894651571348526,0.06955879929435606,0.06891766793859509
0.06883939785123047,0.060995756548789797,0.07122807804543815
0.06186303321568558,0.054286860248957715,0.0697643399653264
0.03874312803979246,0.04133614270814261,0.056899230271010834
0.009927113563827368,0.011054109726094635,0.024108627201840656
-0.023955151972297903,-0.03131525962738077,-0.019107522094792162
-0.05440742861499041,-0.06127175544720061,-0.04810245141700588
-0.06350614166762943,-0.07116525442100362,-0.05681312803100426
-0.0524151596170085,-0.07512831552638966,-0.060006086097914704
-0.03386857296569241,-0.07630308006834338,-0.062208868404749554
-0.011974152843540736,-0.06481020286272386,-0.051919650723963984
0.007880074284114,-0.04355121079026017,-0.031054207895704275
0.01815634839397943,-0.026835585199328334,-0.015118118307820911
0.019621453430296025,-0.016588241483973,-0.005718623773769941
0.013500874446805219,-0.006050745080544759,0.0025902423868644276
0.0022661204066392127,0.0034252170982265067,0.009471246400723115
-0.009632723299520763,0.004515058902207668,0.012240868454267905
-0.02526279244863654,-0.0030147571980258096,0.00760569786724735
-0.03552537398806911,-0.008025198738406732,0.00048073750670337025
-0.02122348417094127,-0.0030501416721810423,0.0010906283734166012
0.008735859936168083,0.008810734064652895,0.01037531992079214
0.03054127835050613,0.02479743948798694,0.02177669153499595
0.03747656527475242,0.04107429759939389,0.0257158690152967
0.03427250379346193,0.04803796211314365,0.01701954277463275
0.0267210511997367,0.04149891128925669,0.00802185869394579
0.017793495277508502,0.0259934347144338,0.00997350946742813
0.007832150287598972,0.007006125882736036,0.010260516934116708
-0.0026084346674608463,-0.01096211009329103,-0.0024826145868562105
-0.009269870183049832,-0.02309898472853578,-0.01436472370776339
-0.0025673569561622503,-0.024386979587786243,-0.00962192532073462
0.018272735242658787,-0.015151631833270559,0.004599294653684483
0.03639485221055606,-0.003623370153495809,0.016402476721252304
0.035415833424606184,0.0010827649091501147,0.024797445121893247
0.01899844147560065,-0.0031704488843088325,0.023470035588458567
0.00551810588444473,-0.009999652396268707,0.008093610560617935
0.003539529456895689,-0.01381409871020277,-0.007856829400599856
0.005381180180116077,-0.013375331230677887,-0.012018437667584255
0.00595626813829642,-0.005895053394261736,-0.005237886267066571
0.006086347557408641,0.006156898503010456,0.007462194133903061
0.0022250426953406167,0.012547334535445447,0.017715535881352554
-0.010426892384626952,0.008570119640397313,0.01374048246771573
-0.02865170363077071,-0.0014649172300266258,-0.004520367600345123
-0.03742864127823739,-0.007225509622498478,-0.019100346908124947
-0.023804533697536382,0.0013304562282367423,-0.014486701881106036
0.0024441238222664623,0.01899438572652881,0.0035158414669350956
0.01942975744423591,0.02894449985898019,0.018052769654711635
0.021346717304837056,0.025802358553995545,0.02385749566848815
0.017108866755865235,0.019022693305852996,0.028090855802144692
0.012994249340789202,0.016078705056137652,0.031534945402407644
0.012658781365184002,0.017734698446602533,0.029956404335620457
0.015698532001280106,0.021032531437870202,0.02696435149539202
0.015883381702123788,0.020232842321961948,0.024940948855237535
0.01034473696202976,0.013516869127298818,0.01930842732147417
-0.00564818530355695,-0.0016772240749580209,0.003465615160264594
-0.031177982875634367,-0.02720358373054275,-0.023290655921778206
-0.046780666883884416,-0.048052115902805746,-0.04585661799016775
-0.04232373520798675,-0.0484413451185133,-0.04865494079038139
-0.028097154528239666,-0.03221402527092367,-0.03360857434923263
-0.01178245685748062,-0.012504873166459167,-0.012836408947646706
0.00749668231199377,0.0026609124564734845,0.002432388280185709
0.026460892361512257,0.011938721579975447,0.006751850653848827
0.0328621690388768,0.01102580214677045,-0.002324760480177492
0.02017600253282707,-0.0023070677149211595,-0.02294624696175191
-0.0033752186117013048,-0.016050397476813465,-0.04152998042983742
-0.022579048643794935,-0.017713467762109393,-0.0454835082834726
-0.027987613964776743,-0.010728572563866496,-0.038595329082946696
-0.02179172584390518,-0.0061144371340241775,-0.02970527280226795
-0.010111963264671049,-0.005534131757878364,-0.020262727148213696
0.002279812977072078,-0.0027316814047839495,-0.008925932214014814
0.008023846273659086,0.003573831889678483,0.0012843584134313922
0.0031287523439097287,0.009093809857894755,0.005682747840433869
-0.007113290339873541,0.007395355098443594,0.004972404360379636
-0.01755387529493336,-0.002455682506373136,0.00531681332040593
-0.02284605376723581,-0.009497192863264404,0.010418371040795427
-0.01843019980263674,-0.006822126617128828,0.016258972987908012
-0.01229592824871307,-0.0025901435081630195,0.019193624334798737
-0.012487624234773185,-0.004055060738189645,0.021001771374936785
-0.015698532001280106,-0.006347974663448712,0.0215542607483123
-0.01668439707244641,-0.004507982007376622,0.01732807580132297
-0.013480335591155922,-0.005236902174974411,0.005840601947112588
-0.00846885481272721,-0.012887025487335679,-0.007433493387234202
-0.006182195550438699,-0.018697156143624858,-0.010181589880777348
-0.005271639616653154,-0.014599634036448933,-0.00220995749350206
0.004361083682867609,-0.00019107616043825555,0.0033005858669186614
0.023907227975782874,0.017748852236264625,0.0030638047069005835
0.0404683919143335,0.031081722097956233,0.006974281440532476
0.051018517432856236,0.04248967656560319,0.018433054548074
0.06121948240534091,0.05702561854857271,0.028334812148829987
0.06587495635251513,0.06619727424960897,0.02891600226887436
0.05166206824320091,0.05440009056625446,0.019781989641510324
0.0140417309789034,0.017359623020557068,-0.00021525560001643443
-0.027275600302267746,-0.02429497995498264,-0.026921300375388733
-0.043850456811251236,-0.03945368868308424,-0.04299371850994917
-0.03501190259683666,-0.027656504999729728,-0.040417826496419174
-0.020470392797133675,-0.016107012635461836,-0.030652397442340263
-0.01018727240205181,-0.014960555672832304,-0.02278839285507319
-0.0018416507232203875,-0.010509188824104055,-0.012083014347589186
0.009153483334370476,0.007982737369420453,0.011056962654177516
0.0215657984317629,0.03298540680750774,0.043804514603344405
0.030226349230550224,0.05073425904377237,0.06958496029864604
0.03052073949485683,0.058023460719750265,0.07750636637925082
0.02151102815003144,0.05689823444161387,0.06897506943193281
0.011672916294017698,0.04825734585290609,0.05133846060391961
0.009708032436901522,0.0320654104794717,0.030300813295646753
0.011809841998346352,0.008662119273200918,0.007261288907221055
0.005244254475787423,-0.019411922521560553,-0.015993491081221077
-0.02274335948898932,-0.05478224288713097,-0.042965017763280315
-0.06847654473475953,-0.09671284476108148,-0.07684624920586709
-0.10539171462176447,-0.12433396528665598,-0.10384647663459519
-0.11667439265844551,-0.12215428167869366,-0.11023956795508329
-0.11729055832792445,-0.10945833235179624,-0.10403303148794277
-0.11957037130499654,-0.108205721966701,-0.09729553120742836
-0.11195045585910697,-0.1056014246688759,-0.0871569924466543
-0.09165122019238411,-0.08576488845745255,-0.06941275581863289
-0.07354279579491971,-0.06192282977165689,-0.05038416077718009
-0.059418909393419116,-0.045568125817108424,-0.03543824694937232
-0.03772987782776043,-0.028788808172697168,-0.02192019526834024
-0.012241157966981608,-0.012221797373217307,-0.007655924173917851
-0.0009105559337855447,-0.008336582110972778,0.0033866881069252353
-0.007017442346843484,-0.016170704688941256,0.005029805853717351
-0.011494912878390448,-0.0188103864609216,0.0024826145868562105
0.005874112715699228,-0.0029581420393774375,0.011042612280843087
0.0414542569854998,0.026241126033520426,0.029547418695589234
0.07345379408710609,0.055008703521724454,0.045038646710105296
0.09365033547558245,0.07795199656397721,0.057839179724415934
0.1082671544126662,0.09410854746325638,0.07188819521882188
0.11751648574006673,0.10146144119271369,0.08129486493954007
0.11754387088093246,0.10039990696805672,0.08082847780617113
0.10906132349777238,0.09412977814774952,0.07630811020582601
0.09233584871402738,0.0818301349313907,0.07101999763208894
0.06424554047100414,0.05599946879807097,0.05212055595064599
0.029815572117564266,0.02137929928459148,0.01737112692132626
0.0020812707057955306,-0.003064295461843135,-0.01002373577409863
-0.018060500400949375,-0.015724860314585327,-0.022264604228366534
-0.04020823307610905,-0.032836792016055764,-0.03880340949629591
-0.05827557976227486,-0.051555178844173766,-0.06128326932467888
-0.052360389335277036,-0.04784688595270539,-0.06425379660490568
-0.02489309304694918,-0.019652536945816135,-0.03690198502948407
-0.005175791623623097,0.003304909886098716,-0.0018009718534708348
-0.006517663526043899,0.005265209754298597,0.01652445489459495
-0.011775610572264188,0.0007218432727667431,0.02164753817498609
-0.01175507171661489,-0.002583066613331973,0.026849548508716587
-0.018368583235688844,-0.011507030995281612,0.030473017775659902
-0.030198964089684494,-0.020820224592938807,0.02696435149539202
-0.03195161310509126,-0.020176227163313576,0.018734412388097012
-0.02184649612563664,-0.012066105686934284,0.008890056280678743
-0.006305428684334487,-0.0020239919216792994,-0.00220995749350206
0.009208253616101936,0.008775349590497661,-0.009650626067403478
0.01511659775788333,0.019567614207843576,-0.00538139000041086
0.005627646447907652,0.02864019338124519,0.007175186667214481
-0.010666512367202095,0.03249002416933449,0.01325974496101236
-0.02348275829236405,0.02265314035417985,0.003121206200238299
-0.03233500507721149,-0.004465520638390342,-0.01596479033455222
-0.03540898713938975,-0.029630958657591702,-0.020564084988236704
-0.02351698971844621,-0.02704081514942868,0.004936528427043563
0.004915632785398655,-7.076894831046501e-05,0.04462248588340686
0.033505719849221474,0.023006985095732176,0.06688709011177339
0.04469254989287245,0.026899277252807753,0.06096756111132145
0.03765456869037967,0.020055919951185785,0.040604381349766745
0.024653473064374033,0.011606107522916262,0.015921739214548935
0.01606823140296747,0.0038073694191030176,-0.010899108547498797
0.00934517932043059,-0.002115991554482904,-0.03201568290911101
-0.00040393082776952734,-0.007727969155502779,-0.042405353203237586
-0.007606222875456693,-0.013849483184358004,-0.04674634113690235
-0.006613511519073956,-0.015562091733471256,-0.04400541983002641
0.003518990601246391,-0.006666434930845805,-0.024905072921901465
0.020956479047500393,0.010162420977382776,0.004441440547005764
0.03000042181840795,0.0188103864609216,0.020054646734864474
0.017642877002746984,0.00942642391495394,0.013575453174369798
0.002012807853631204,-0.00228583703042802,0.004879126933705847
0.0037723031542543995,0.0029581420393774375,0.010978035600838156
0.017348486738440378,0.02207283497803404,0.026045927601988567
0.035361063142874724,0.04092568280794192,0.039140643269654996
0.056878937578122596,0.05062810562130667,0.047176852336935214
0.07306355582976942,0.050776720412758644,0.050111503683825935
