channel1,channel2,channel3
-0.004664613238207828,-0.014086219493427024,-0.01887181673569384
-0.008208456459790426,-0.01768983694235339,-0.025482492265418294
-0.0194556203590225,-0.029364130301647518,-0.03283640715288411
-0.030659374151976834,-0.037645314558041675,-0.03546313506937379
-0.02211942233515641,-0.026224344801592865,-0.02649809884121395
0.004925073875874255,-0.001609140068778011,-0.009643646076532394
0.026965568745071142,0.019174099178742864,0.005147278781873442
0.03334290799460063,0.032396877659654856,0.014855554367774651
0.03736820875853632,0.044078306895085476,0.025260905376153785
0.04794843557041042,0.054214818946966475,0.03847302364855001
0.05419554450110669,0.055559931598694434,0.04742882708965716
0.04539513204661984,0.04464560904793626,0.044229666375900846
0.026582770535167454,0.02723763921297414,0.03004348906944606
0.008184778220002568,0.014104059183768244,0.018036249507425592
-0.006689102740069602,0.008552347549580694,0.01775926589584496
-0.019092554015608693,0.003567938068243927,0.019471947894118543
-0.03029236143526505,-0.004467058461441397,0.012048787103757563
-0.03912039850283774,-0.012316522211578036,0.002345127911382698
-0.03957423143210499,-0.02039790193615053,-0.002654426277647739
-0.029053200219700533,-0.029121510513006932,-0.008941954260528122
-0.012265328210109925,-0.029667405037448254,-0.015257180604566569
0.0050474114481115166,-0.017828986527014902,-0.010802360851644712
0.016282736227449662,-0.003860508989839929,0.001869639378169277
0.018236191009947864,0.00548748874895916,0.013022846137816124
0.020343554351067137,0.014953228444010298,0.022583397130874327
0.030363396154628623,0.025931773879996862,0.030103502185288532
0.04273133007048593,0.03570078831084873,0.030569757931449264
0.05273538638085551,0.04510944099680797,0.027559869352273045
0.05830371910429988,0.050457780161105616,0.027832236570327337
0.05245124750340122,0.04387493442519557,0.027425993940009073
0.03045810911378005,0.026245752430002326,0.021738597115553395
-0.0012667858286503494,0.0025118284000437245,0.010400734614852792
-0.028125802494676135,-0.02487566421179666,-0.009223554265635099
-0.03816142979142952,-0.04469199224282343,-0.02877398084970149
-0.03329555151502491,-0.04359663525587255,-0.03004348906944606
-0.026468325709526147,-0.030056310286886843,-0.015104839618197221
-0.02547778601173413,-0.024936319158956808,-0.006453718149828764
-0.029005843740124822,-0.03089120779485592,-0.011319396926595228
-0.02825603281350935,-0.031793896126121636,-0.013281364175291382
-0.011914100986590046,-0.01627336552926055,0.0014449311737456387
0.015805225058394545,0.011528007898496128,0.026992052948532748
0.03951898220593333,0.039097465351816955,0.047853535294080804
0.05457044996441442,0.057689990625436054,0.06105642077942434
0.0650401783239452,0.06930719697563828,0.07151255211659326
0.06991000297364779,0.07570807787006789,0.07137867670432929
0.06501650008415734,0.06892899554040442,0.054187227212224624
0.054929569934530256,0.05182786837931128,0.03661261705743342
0.04930598798491422,0.04292586289904269,0.03711580395180491
0.04694211037942649,0.04434947018827201,0.0476642631595007
0.039980707881796536,0.043239841449048154,0.049303082861352786
0.03136972134561254,0.04043901006547667,0.040965876152775714
0.02951097952226577,0.04065308634957131,0.03382893176104805
0.02778246801775221,0.034591159571624876,0.0255148070201027
0.0023915022185735566,0.007967205706388689,-0.004399423030605731
-0.05564386350146394,-0.043696537521783374,-0.06346617820017585
-0.1150446743826012,-0.10259605915235412,-0.12268527435611531
-0.14044747930167378,-0.1385287634376387,-0.1478215371070578
-0.13240082414710036,-0.13803638798422105,-0.13625747132356636
-0.10588908833129648,-0.10858662716893568,-0.10404889369026502
-0.06968900606896111,-0.06767308134038257,-0.0667530503909327
-0.03655130948585525,-0.03548314408868585,-0.038842335130657525
-0.014672615921875385,-0.017268820250300607,-0.02259724631145336
0.0025059470442148654,-0.000685044109102834,-0.005872052565509433
0.01859925735336167,0.019727129579320674,0.0146293510849838
0.028323121159574943,0.034002449790364625,0.031008315316451936
0.03034761066143672,0.03425934133127819,0.039756381048873614
0.03153941539742552,0.02802972146412429,0.042863213892103055
0.03877311765261583,0.02886461897209337,0.04526373852580188
0.045872643215674955,0.036039742427331906,0.04933078122251085
0.043031254441132115,0.038283975472257335,0.050609522229308104
0.03140129233199635,0.030741354395989677,0.04047653843898326
0.010682832517621482,0.012655476328061209,0.012173429728968848
-0.015094877864758835,-0.009244527534820015,-0.025085482422152718
-0.028919023527569344,-0.017718380446899343,-0.04843981727192648
-0.032194513364889564,-0.015170872666173178,-0.05004170582556781
-0.04296416609506652,-0.024208459793035045,-0.04371724669447667
-0.058118239559295,-0.0451201448110127,-0.04241080732652135
-0.059787555464338914,-0.057079873215766345,-0.04839826973018938
-0.04779452701178935,-0.05329429092535954,-0.05762644038935082
-0.04268791996420819,-0.0470932145627516,-0.06589901758855908
-0.05191454073487647,-0.04844903102868429,-0.06847958156978531
-0.05647260189403894,-0.049558659767908145,-0.05819887318661747
-0.044025740512222106,-0.03981105296546574,-0.039465548256713945
-0.024945025616507344,-0.02232102055493401,-0.025270138163206474
-0.011657586722221594,-0.004360020319394079,-0.014380065834561228
-0.003311007197002003,0.013279865490003897,0.00035546230152847983
0.0046133103853341385,0.02490420771634261,0.012727396952130115
0.011993028452549568,0.024947022973161537,0.01719144949210466
0.021168346370344156,0.025699857905561008,0.02410219060104147
0.03462942568974086,0.03473030915628639,0.03627100393648398
0.04691448576634066,0.03738485507905987,0.038002151508862936
0.05189875524168456,0.030598636873259918,0.0299003808701294
0.05420738362100062,0.03164404272725539,0.02930948249875738
0.060868861747984386,0.04462776935759504,0.036391030168168914
0.0670922924388928,0.05596667653847424,0.04236925978478426
0.062281663388659855,0.05337992143899739,0.04297400733673531
0.03724192481300108,0.03193304571078315,0.028912472655491808
-0.0066851563667716255,-0.002686657365387677,-0.0015003278960617655
-0.043240412225924854,-0.031194482530656653,-0.027947646408485932
-0.0435640148363589,-0.03767385806258763,-0.031105259580505158
-0.01840588506176084,-0.02991002482608884,-0.01957350855169811
-0.006499676821766745,-0.02728402240786131,-0.013913810088400496
-0.019337229160083215,-0.03302126682159755,-0.015617259299621393
-0.034570230090271215,-0.03493011368810805,-0.015284878965724632
-0.03470835315570038,-0.026317111191367207,-0.00909429524689747
-0.018429563301548695,-0.011667157483157642,0.0031853115331772867
0.0053039257124799675,0.002729472622206604,0.014846321580721963
0.02400578877158902,0.015941547288913865,0.017967003604530435
0.03565548274721466,0.027840620746507363,0.01652668882431114
0.044653213866600316,0.03664985983700162,0.016462059314942327
0.05047016810781719,0.04800660670822204,0.015501849461462795
0.0533983770949155,0.063598496066448,0.01339677401344998
0.04961775147545434,0.06287420463859449,0.010211462480272692
0.029826689386103864,0.033820484948884184,0.0031068328432294406
0.005966916426539963,0.0045419851608745196,0.00032314754684407255
9.865933244940415e-05,0.0014806942983212298,0.00886809196410662
0.005592010963232227,0.007449854686493319,0.017860826553424525
0.00436468886756164,0.0014913981125259615,0.01924112821780135
-0.00318077687816879,-0.006886120471710779,0.017251462607947132
-0.010876204809222315,-0.011863394076911057,0.012025705136125843
-0.015651316499773475,-0.01914555567419691,0.0022481836473294764
-0.009135854184814824,-0.018428400122479885,-0.0014356983866929509
0.01129057400550981,-0.00011417401818380567,0.009777521488796367
0.031791983288495994,0.023826690419732944,0.027762990667432177
0.04000833249488237,0.037705969505201824,0.03824220397223282
0.03897043631751464,0.03865147309328646,0.037129653132383936
0.036930161322460964,0.036375128605746834,0.03320110224146528
0.033449460073645985,0.036599908704046204,0.029669561193812206
0.02279030579581236,0.03148705345225266,0.02047832168286151
0.0068232794322007915,0.017911049102584516,0.008023291948785687
-0.006286572663676032,0.004845259896675253,-0.0012972065809026341
-0.010572334065278148,0.0011916913147934716,-0.0062182820799852245
-0.007932210328932094,0.006422288522839069,-0.00809715424520719
-0.007450752786579001,0.008998339808111185,-0.011480970700017263
-0.01269153652629135,0.0010632455443366903,-0.0192780593660121
-0.01745875547024656,-0.00967624804107753,-0.025694846367630114
-0.018741326792088814,-0.012898096116701797,-0.024346859457937697
-0.019412210252744762,-0.009041155064930112,-0.019139567560221782
-0.019806847582542378,-0.007314273039900051,-0.016688262597733174
-0.018121746184306554,-0.01496393225821503,-0.01887181673569384
-0.012656019166609564,-0.025071900805550076,-0.022864997135981308
-0.006949563377736029,-0.02839008320901693,-0.023160446321667316
-0.00945945679524887,-0.028843211343683905,-0.020362911844702916
-0.015083038744864908,-0.028486417536859515,-0.016212774064519753
-0.011499731790302548,-0.02295254559301318,-0.008304891953892665
-0.0028690133876286728,-0.013461830331484338,0.0008078688671101814
0.004064764496915451,-0.002740176436411336,0.01087160675453987
0.01187858362690826,0.007317840977968295,0.02458691192130758
0.017300900538327512,0.012223755821803694,0.03411976455320772
0.0173364178980093,0.012808897664995699,0.03718043346117372
0.020698727947884993,0.017757627765650024,0.045910033619490025
0.03238393928319242,0.03220420900396968,0.06404784378449518
0.04543064940630162,0.05023656800087449,0.08109618507728318
0.05316554107033491,0.0606906265408292,0.0866727884571066
0.05741183873895726,0.06225338341472004,0.08287349658492559
0.0594757919737988,0.06188231785562267,0.07864026372126823
0.05165013372391206,0.057804164643619864,0.07233427016428247
0.0331653211961917,0.04346818948541576,0.05635693216960626
0.018299332982715483,0.024800737512363537,0.03612789573716731
0.01709568912683275,0.017614910242920268,0.02636422342894998
0.01886761073762405,0.01976280896000311,0.025487108658944636
0.004104228229895213,0.010118672361539778,0.016175842916309004
-0.024183375569997945,-0.012794625912722722,-0.004510216475237984
-0.044696623972878054,-0.02981012256017801,-0.02360823649372267
-0.048169432475097085,-0.03218993725169671,-0.03386124651573246
-0.0391085593829438,-0.025464373993056906,-0.03577704982916518
-0.02451881730032592,-0.017390130144620902,-0.031248367779821817
-0.011440536190832906,-0.01253773437180916,-0.026608892285846203
-0.0055012443773787756,-0.014778399478666345,-0.03168230877129814
-0.0075730903588162625,-0.02595674944647457,-0.04480209917316749
-0.010315819800909698,-0.03422366195059575,-0.047562702501921135
-0.00622737706420639,-0.022556504467438107,-0.028173849691276783
-0.00019337229160083214,0.0016555232636651822,-0.00164805248890477
0.0009471295915142798,0.017340179011665485,0.010502295272432358
0.0034728085022190263,0.024201323916898557,0.0057935738755615866
0.00993302159100601,0.029196437212440054,-0.010742347735802241
0.008153207233618759,0.022492281582209717,-0.034032053076207186
-0.0036977517802036677,-0.0010953569869508856,-0.04902609924977215
-0.009854094125046486,-0.022827667760624646,-0.04468668933500889
-0.003449130262431169,-0.024504598652699293,-0.028981718558386965
0.0063694465029335325,-0.010218574627450606,-0.013202885485343535
0.013993839714623485,0.005826442865442333,-4.616393526343894e-05
0.01831117210260941,0.01022214256551885,0.005502741083401921
0.014238514859098007,-0.0019873415040118675,-0.004048577122603595
0.0011562873763070166,-0.01943455865772467,-0.023977547975830186
-0.015682887486157284,-0.032379037969313636,-0.04027803351735047
-0.03346919194013587,-0.04613700716046222,-0.046145469689333564
-0.05110158783549337,-0.06325954194996483,-0.04680561396360074
-0.06695811574676161,-0.07156213383476845,-0.04812128611860875
-0.07832761721823095,-0.0638660914215663,-0.05024482714072694
-0.07489427244899168,-0.048110076912201115,-0.04932154843545816
-0.05271565451436563,-0.029606750090288108,-0.04145521386656817
-0.03175646592881421,-0.01240215272521589,-0.03125298417334816
-0.025063416815446632,-0.004945162162586083,-0.023400498785037197
-0.018532169007296075,-0.005476784934754428,-0.013927659268979528
-0.002446751444745223,-0.003963979193819003,-0.003393049241862762
0.010576280438576125,-0.002772287879025531,-0.00096020985347953
0.007683588811159595,-0.013708018058193168,-0.010248393628483444
-0.00460147126544021,-0.03379907732047472,-0.023825206989460834
-0.01649978675883835,-0.0470611031201374,-0.03306722682920131
-0.027498329140297924,-0.04642244220592173,-0.0364002629552216
-0.03247470586904587,-0.038173369392141776,-0.03567548917158561
-0.027624613085833163,-0.029742331736881376,-0.031012931709978278
-0.0210617942912988,-0.02120425593957366,-0.023506675836143107
-0.019120178628694525,-0.011174782029739979,-0.014458544524509075
-0.022750842062832597,-0.004203031044391346,-0.0054658099351911705
-0.02959385336152327,-0.004310069186438664,-8.771147700053398e-05
-0.03015818474313386,-0.0058621222461247725,0.003051436120913314
-0.019025465669543096,-0.00146285460798001,0.011088577250278033
-0.0031728841315728376,0.007178691393306781,0.025477875871891948
0.00925424538375411,0.01556334585368001,0.03925319415450213
0.01721802669907001,0.022945409716876693,0.05030484025656941
0.0222535990272876,0.02802972146412429,0.06099179127005552
0.02336647629731688,0.028336564137993268,0.06610213890371822
0.019313550920295356,0.023498440117454503,0.060160840435313626
0.00974754204600113,0.013404743322392434,0.04646861723617764
0.0002722997575603555,0.004866667525084717,0.03551391539816357
0.0009431832182163037,0.00538758648304833,0.032476328457829294
0.004471240946606996,0.0028186710739127024,0.02501623651925756
-0.004538329292672591,-0.012198780255325987,0.004676406642186364
-0.015678941112859307,-0.023726788153822113,-0.012404249405286042
-0.008145314487022806,-0.01828925053781837,-0.011139357579067815
0.008496541710542685,-0.008117059105254934,-0.0048379804156084005
0.006444427595595079,-0.012287978707032085,-0.010654636258801706
-0.014096445420370866,-0.0263492226339814,-0.018677928207587395
-0.023887397572649734,-0.029389105868125227,-0.013119790401869346
-0.009775166659086964,-0.015952251103118598,-0.00156495740543058
0.009668614580041607,-0.0002390518505723431,-0.00016157377342203627
0.01925830169412369,0.008241936937643472,-0.005530439444559985
0.025193647134279844,0.017832554465083146,-0.0026267279164896755
0.03267991728054063,0.034573319881283655,0.009126610001581877
0.03305482274384837,0.04318989031609274,0.011360944468332322
0.02014623568616833,0.031465645823843195,-0.007206190294622818
0.0022888965128261764,0.010928594303031149,-0.028123069362487
-0.011160343686676597,-0.005034360614292181,-0.030237377597552503
-0.018046765091645007,-0.013130012091137651,-0.018853351161588462
-0.014518707363254314,-0.010407675345067535,-0.009195855904477036
-0.0011207700166252312,0.00027829916932302633,-0.0071738755399384105
0.00783355099648269,0.007735289731952834,-0.009398977219636168
0.0026519628562399838,0.006475807593862727,-0.013724537953820396
-0.007758569903821143,0.0013879279085468876,-0.024083725026936093
-0.01416353376643646,-0.0038462372375669533,-0.03985332531292683
-0.018839986124538216,-0.015103081842876544,-0.05511512231101975
-0.025462000518542225,-0.03245039673067852,-0.06587131922740103
-0.03708801625438001,-0.04467058461441397,-0.06935669633979066
-0.04925468513204053,-0.046401034577512275,-0.06300453884754147
-0.047928703703920536,-0.04003940100183335,-0.0449821385206949
-0.03498459928655871,-0.031069604698268118,-0.02174321350907974
-0.023883451199351757,-0.023519847745863968,-0.007487790299729796
-0.010951185901883861,-0.012398584787147646,-0.0019850492163278745
0.013232189668114085,0.008334703327417814,0.009837534604638837
0.04086864187384118,0.03220064106590144,0.029397193975757914
0.05730134028661393,0.047685492282080084,0.04452511556158686
0.06140162214321117,0.05402571822934955,0.051948276351947834
0.06368657228273937,0.057943314228281376,0.0579080403944578
0.06653585380387816,0.059930655732293246,0.0639139683722312
0.058520769635688565,0.05308735051740139,0.06420480116439087
0.036724949910966205,0.03826256784384787,0.05911291910483356
0.02015412843276428,0.03028109038518621,0.05843892564998735
0.023678239787856995,0.03638940035801981,0.06567281430576823
0.032936431544909085,0.0400679445063793,0.06830415861578425
0.027810092630838043,0.027448147559000532,0.05433033541154129
0.013812306542916581,0.010272093698474266,0.03193621041524706
0.00798745955510376,0.0038462372375669533,0.014098465829454251
0.011152450940080645,0.008388222398441473,0.0008124852606365253
0.011918047359888021,0.015731038942887476,-0.007067698488832501
0.00912006869162292,0.018856552690669156,-0.00411320663197241
0.008824090694274707,0.014903277311054883,0.003785442691601993
0.007446806413281025,0.006825465524550632,0.004644091887501957
0.002162612567290939,0.004338612690984615,-0.0012833574003236026
-0.0033583636765777175,0.007167987579102049,-0.006855344386620682
-0.010449996493040887,0.0017411537773030364,-0.009528236238373797
-0.016018329216485258,-0.008555915487648938,-0.0070261509470954065
-0.013271653401093847,-0.008402494150714448,-0.0008494164088472764
-0.010588119558470053,-0.0020230208846943065,0.0025574820135945172
-0.018690023939215122,-0.0023191597443585526,0.00025390164394891416
-0.03279436210618194,-0.011492328517813689,-0.009154308362739942
-0.04261293887154664,-0.022652838795280694,-0.021733980722027053
-0.04148427610832546,-0.024490326900426317,-0.026548879170003734
-0.029132127685660057,-0.014261048458770976,-0.0208660987390744
-0.01541058772859693,-0.005626638333620673,-0.014116931403559628
-0.009455510421950895,-0.011099855330306857,-0.015677272415463864
-0.010469728359530769,-0.02756588951525258,-0.028007659524328404
-0.015154073464228477,-0.04487395708430387,-0.0458130893554368
-0.020193592165744043,-0.05667669621405478,-0.05771415186635136
-0.022281223640373434,-0.06131501570277189,-0.056010702655130466
-0.02211152958856046,-0.05664815270950883,-0.0437726434167928
-0.018642667459639408,-0.03897615545749666,-0.02420836765214738
-0.005201320006732587,-0.009818965563807288,0.004551764016975079
0.018409831435058813,0.021418332223668294,0.03630331869116838
0.043595585822742706,0.04631183612580617,0.06108873553410875
0.06522565786895007,0.06533251396761455,0.07942966701427304
0.0836354893040089,0.08062826446617627,0.09486227057284068
0.09857645861014665,0.08863828542938389,0.10573387732738054
0.10846607009487493,0.08803530389585065,0.11096886758625452
0.11275577786977502,0.08484913520090882,0.11066880200704217
0.10538789892245351,0.08026076684514714,0.10051735264261194
0.07676485339223238,0.06379473266020141,0.07545495218809094
0.03389145388301931,0.03511921440572498,0.043227908980684224
0.0009392368449183276,0.014050540112744585,0.02334048566919473
-0.007383664440513407,0.01152087202235964,0.02111538398949697
-0.00026440701096440314,0.014767695664461615,0.021914020069554462
0.002549357150492603,0.00797790952059342,0.013890728120768777
-0.009609418980571964,-0.008984068055838209,-0.0026636590647004265
-0.028319174786276966,-0.024611636794746608,-0.020279816761228725
-0.0362947952214868,-0.027551617762979604,-0.0312576005668745
-0.028792739582034106,-0.015884460279821964,-0.030805194001292804
-0.015777600445308713,-0.0022263933545842106,-0.021124616776549657
-0.008117689873936974,0.0027259046841383605,-0.011337862500700603
-0.010371069027081365,0.003228983951760754,-0.0034622951447579203
-0.021010491438425108,0.0011667157483157642,0.0010894688722171589
-0.032356314670106585,-0.009305182481980161,-0.005872052565509433
-0.03976365735040785,-0.029014472370959617,-0.024928525042257028
-0.04856012343159672,-0.05315514134069803,-0.049538518931196325
-0.05461386007069216,-0.06866853606142262,-0.0667945979326698
-0.044925513624160675,-0.06325597401189659,-0.06371084705707208
-0.02925446525789732,-0.047485687750258423,-0.05024482714072694
-0.026791928319960193,-0.039372196583071735,-0.04736881397381469
-0.03144470243827409,-0.03669267509382055,-0.05627383708613207
-0.029582014241629342,-0.029067991441983274,-0.06486032904513171
-0.02065926421490523,-0.01898143052305769,-0.06504960117971181
-0.011854905387120402,-0.018695995477598176,-0.058452774830566386
-0.018212512770160005,-0.03577571501028186,-0.058208105973670154
-0.04022538302627106,-0.060066237378886514,-0.06823491271288909
-0.05355228565353658,-0.070795027150096,-0.07473017840445495
-0.04337458891805604,-0.059202796366371484,-0.06964752913195033
-0.017285115045135607,-0.034045265047183554,-0.05710940431440031
0.009147693304708753,-0.009262367225161234,-0.0423738761783106
0.0244556753275583,0.006775514391595218,-0.02650733162826664
0.024775331564694372,0.010867939355871001,-0.011573298570544142
0.012703375646185278,0.005134262880203011,-0.0019481180681171233
0.00022888965128261762,-0.0018196484148044027,0.003988564006761125
0.001590388439084395,-0.0034965793068790487,0.009879082146375933
0.015998597349995376,0.0008063540034231276,0.01620354127746707
0.026989246984859,0.008541643735375961,0.022486452866821105
0.026827445679641976,0.015641840491181377,0.02706591524495425
0.027154994663374,0.02145757954241898,0.029701875948496614
0.032628614427666944,0.027733582604460044,0.027832236570327337
0.0322379234711673,0.033060514140348225,0.016655947843048767
0.019704241876795,0.031861686949418266,0.001828091836432182
-0.0029163698672043867,0.018638908468506275,-0.006763016516093804
-0.027932430203075304,-0.0025653474710673834,-0.0085818755654733
-0.04061212760947273,-0.017661293437807438,-0.005091882059557315
-0.032277387204147065,-0.018082310129860224,0.0037161967887068344
-0.01514223434433455,-0.011174782029739979,0.011282465778384477
-0.00781381912999281,-0.008238368999575228,0.01084852478690815
-0.009514706021420537,-0.009779718245056605,0.004634859100449269
-0.0046290958785260424,-0.008520236106966499,-4.616393526343894e-06
0.011215592912848264,-0.001273753890363082,0.003079134482071377
0.022691646463362955,0.005423265863730769,0.011887213330335527
0.014652884055385505,0.004873803401221204,0.017588459335370236
-0.009041141225663397,-0.00046383194887171053,0.015141770766407972
-0.027403616181146496,-0.004142376097231199,0.008000209981153968
-0.025387019425880678,-0.002151466655151088,0.00329610497780954
-0.013622880624613726,0.003278935084716169,0.0037208131822331785
-0.009810684018768749,0.005858554308056528,0.004279396798920789
-0.012391612155645161,0.004702542373945496,-0.0007709377188994303
-0.010359229907187436,0.004470626399509641,-0.007016918160042718
-0.0018982055563265359,0.007853031688204884,-0.005198059110663225
0.008922750026724111,0.013486805897962044,0.00409012466434069
0.01825986924973572,0.020019700500916674,0.014116931403559628
0.023378315417210808,0.02714844076126804,0.022768052871928086
0.02689848039900555,0.0328714134227313,0.030892905478293337
0.03399011321546872,0.03706374065291791,0.0369680793589619
0.043895510193388894,0.043307632272344784,0.041390584357199355
0.04906525921373767,0.0521133034247708,0.04879066317992861
0.045355668313640074,0.05809316762714762,0.058475856798198105
0.03882047413219154,0.05462513182481452,0.06462489297528817
0.03528847003050288,0.04006437656831106,0.06537736512008223
0.03457812283686717,0.023327179090178795,0.06365545033475595
0.03531609464358871,0.019274001444653695,0.06641143726998326
0.037668133129182504,0.031722537364756755,0.07811861125279138
0.044475627068191394,0.04612987128432573,0.088597824557592
0.05191059436157849,0.04442796482577338,0.08061608015054342
0.050975303889958135,0.029178597522098837,0.054579620661963854
0.042806311163147474,0.024137101031670168,0.03023276120402616
0.03481490523474574,0.03951491410580149,0.021784761050816833
0.03289696781192932,0.056387693230527024,0.027726059519221427
0.03809828781866191,0.05935264976523773,0.03882848595007849
0.04226565802132474,0.05321579628785817,0.04288167946620843
0.034570230090271215,0.03808773887850392,0.02833542346469882
0.012975675403745635,0.011146238525194028,-0.0025805639812262367
-0.010955132275181837,-0.012444967982034818,-0.028367738219383227
-0.02595135080749127,-0.02088670945149995,-0.03521846621247757
-0.03782598806110155,-0.02650264397091589,-0.03580474819032324
-0.05316554107033491,-0.04188759292118371,-0.041884538464518145
-0.05914035024347083,-0.057322493004406935,-0.04542992869275026
-0.04599498078791221,-0.05666956033791829,-0.042627777822259516
-0.031906428114137304,-0.04458852203884436,-0.044465102445744385
-0.038086448698767976,-0.04144160066265321,-0.05548443379312726
-0.05686723922383655,-0.05333710618217847,-0.06668842088156389
-0.06722252275772601,-0.06443696151248532,-0.06777788975378105
-0.06164235091438772,-0.05946682378342153,-0.05650465676244926
-0.04687896840665888,-0.04252982177346761,-0.040762754837616585
-0.033445513700348005,-0.028532800731746685,-0.028750898882069772
-0.02390318306584164,-0.02081535069013507,-0.01923189543074866
-0.012754678499058968,-0.012684019832607162,-0.010368419860168385
-0.0006985080737417814,-0.0036571365199500254,-0.007737075550152366
0.002687480215921769,-0.00028543504545951414,-0.013632210083293518
-0.00575381226844925,-0.006754106763185754,-0.02149392825865717
-0.01948324497210833,-0.017764763641786512,-0.02771682673216874
-0.0325694188281973,-0.024279818554399923,-0.0343598170165776
-0.03695383956224882,-0.022570776219711083,-0.037789797406651116
-0.02634993451058686,-0.015334997817312398,-0.03235630222614435
-0.012719161139377183,-0.011246140791104859,-0.022638793853190457
-0.012656019166609564,-0.016776444796882947,-0.01707603965394606
-0.020162021179360234,-0.025824735737949543,-0.015307960933356351
-0.015122502477844668,-0.023555527126546405,-0.007672446040783551
0.009790952152278869,-0.0022228254165159666,0.01125015102370007
0.04048584366393749,0.026017404393634716,0.033852013728679776
0.05811034681269905,0.04374648865473879,0.05104807961431078
0.05736448225938155,0.046832755083769786,0.05683242070281968
0.040718679688518084,0.03272869590000154,0.0421430565019934
0.0131137984691748,0.0027080649937971405,0.010973167412119435
-0.008536005443522447,-0.02172160695946903,-0.010280708383167851
-0.008086118887553164,-0.020562027087289752,-0.005059567304872907
0.008682021255547566,0.0007528349323994686,0.014047685500664469
0.023113908406246404,0.023419945479953137,0.02629497752605482
0.022518006038252002,0.03092688717553836,0.02167396760618458
0.007675696064563643,0.017782603332127733,0.0027190557870165532
-0.013188779561836348,-0.006729131196708047,-0.0216231872773948
-0.03461758656984693,-0.030620044501669382,-0.04138135157014666
-0.05209607390658337,-0.04887004772073707,-0.05013865008962103
-0.0599888205025357,-0.05596310860040599,-0.04680561396360074
-0.056176623896690724,-0.04613700716046222,-0.03208855140161641
-0.041713165759608074,-0.026078059340794862,-0.012431947766444107
-0.021168346370344156,-0.009101810012090258,0.001911186919906372
-0.0045935785188442576,9.27663897743421e-05,0.00824026244452385
0.0024151804583614138,0.005384018544980086,0.010931619870382341
0.005434156031313181,0.012480647362717256,0.015252564211040225
0.010793330969964814,0.022310316740729277,0.02388983649882965
0.01787707103983203,0.029660269161311766,0.03409206619204966
0.02163796479280332,0.02894668154766298,0.036391030168168914
0.01822829826335191,0.021082946045253365,0.026184184081422566
0.008607040162886019,0.01320137085250253,0.013285980568817727
-0.005820900614514845,0.0049308904103131075,0.001477245928430046
-0.026326256270799004,-0.010778740904164903,-0.019042623296168563
-0.051172622554856946,-0.03235049446476769,-0.052903869811901025
-0.0714135712001767,-0.054610860072541546,-0.09395284104815092
-0.07741600498639845,-0.07278950453024435,-0.1231145989540653
-0.071859511382848,-0.08047484312924177,-0.12272220550432607
-0.06635826700546923,-0.07961140211672675,-0.1033518182677871
-0.05904958365761737,-0.07456633768822983,-0.08810387045027321
-0.039321663541034516,-0.061482708791979354,-0.07897264405516499
-0.01669710542373716,-0.04332190402461776,-0.06333230278791188
-0.008670182135653636,-0.03129081685849924,-0.03981177777118974
-0.011890422746802189,-0.02653118747546184,-0.019813561015067992
-0.014293764085269674,-0.025285977089644713,-0.011656393654018332
-0.012608662687033851,-0.026581138608417258,-0.010123751003272159
-0.007486270146260787,-0.024083581960646507,-0.003596170557021893
-0.0010734135370495171,-0.012780354160449746,0.00828642637978729
0.0038437675922287856,0.00046383194887171053,0.015395672410356886
0.010923561288798027,0.0085773231160584,0.014380065834561228
0.02254168427803986,0.015120921533217762,0.013521416638661264
0.029546496881947555,0.02371965227768563,0.018931829851536307
0.026894534025707573,0.028789692272660247,0.024254531587410817
0.025821120488658054,0.029831530188587474,0.02464692503715005
0.034297930332710856,0.037905774037023485,0.027527554597588638
0.04453482266766103,0.05492483862254701,0.03926704333508116
0.049680893448221956,0.0685044109102834,0.05467656492601708
0.04872587111011172,0.06789429350061368,0.059939253546049114
0.04063185947596261,0.05396863122025764,0.05047103042351779
0.03134998947912267,0.040563887897865206,0.040411908929614444
0.0314762734246579,0.04118470912173965,0.04085046631461712
0.04046216542414963,0.051934906521358605,0.04717492544570825
0.04244719119303164,0.05633417415950336,0.048458282846031854
0.029065039339594465,0.04628329262126022,0.04098895812040743
0.01697335155459549,0.03312473702557662,0.03679727279848718
0.01851638351410417,0.030106261419842257,0.042840131924471336
0.018966270070073454,0.02980298668404152,0.04567921394317283
0.007273165988170074,0.018085878067928468,0.03668186296032858
-0.0014838363600390384,0.0008277616318325911,0.022744970904296363
0.0073560398274275735,-0.004873803401221204,0.012588905146339799
0.02368613253445295,0.0020337246988990382,0.013673757625030614
0.03346524556683789,0.00964770453653158,0.02373287911893396
0.03662234420521882,0.01173851624452252,0.025851803747525805
0.03131841849273886,0.00695034335693917,0.01132401332012157
0.015596067273601808,-0.00370708765290544,-0.00836028867620879
-0.0014404262537613007,-0.016558800574720065,-0.021558557768025986
-0.0125178961011804,-0.030170484305070647,-0.032536341573671766
-0.01887944985751798,-0.04328622464393533,-0.04896608613392968
-0.023031034566988906,-0.0508217098440665,-0.06256136506901244
-0.025793495875572222,-0.04997254058382444,-0.06280603392590868
-0.030331825168244814,-0.0455590011934067,-0.05607071577097293
-0.04429409389648449,-0.042041014258118195,-0.04982935172335599
-0.059775716344444986,-0.03627522633983601,-0.04005644662808597
-0.04838648300648577,-0.022610023538461765,-0.022034046301239407
-0.008784626961294945,-0.002836510764253922,-0.0005262688620032039
0.025698782916420793,0.014446581238319661,0.016129678981045566
0.037687864995672386,0.027512370444228922,0.028944787410176216
0.03440053603845824,0.040271316976269206,0.041362885996041286
0.026645912507935073,0.04813505247867882,0.048721417277033455
0.019092554015608693,0.04434233431213552,0.04602082706412228
0.010769652730176956,0.03412732762275316,0.035079974406687246
0.004715916091081519,0.028197414553331756,0.024522282411938764
0.005138178033964968,0.029695948541994206,0.023280472553352256
0.009506813274824584,0.034608999261966096,0.029304866105231038
0.013745218196850987,0.03556877460232371,0.031506885817297076
0.011819388027438617,0.02562136326805964,0.022034046301239407
-0.003259704344128313,0.00685044109102834,0.0039008525297605902
-0.023453296509872355,-0.008905573418336843,-0.01139325922301673
-0.03302325175746456,-0.012452103858171306,-0.01636049865736276
-0.03303509087735849,-0.01049330585870539,-0.016489757676100388
-0.03196562371360694,-0.016112808316189574,-0.0237374955124603
-0.027064228077520548,-0.029132214327211664,-0.040467305651930574
-0.015331660262637405,-0.043136371245069076,-0.057081705953242245
-0.005359174938651633,-0.0548748874895916,-0.06827184386109984
-0.00904903397225935,-0.05970230769592563,-0.07206190294622818
-0.024305713142235206,-0.05479282491402199,-0.05985615846257493
-0.028599367290433275,-0.03946139503477784,-0.0284277513352257
-0.006444427595595079,-0.013526053216712727,0.011019331347382874
0.025955297180789243,0.012141693246234084,0.037314308873437695
0.04197757277057248,0.020472828635583654,0.035232315393056594
0.03242340301617218,0.012808897664995699,0.017777731469950334
0.00928581637013792,0.007035973870577025,0.010206846086746348
-0.004640934998419971,0.009744038864374164,0.014255423209349943
-0.000785328286297257,0.012480647362717256,0.013946124843084903
0.004447562706819139,0.010468330292227683,0.004930308286135278
-0.00043804743607535443,0.00705024562285,-0.001223344284481132
-0.005031625954919612,0.005216325455772621,0.002345127911382698
0.0002959779973482125,0.005048632366565157,0.00872498376478996
0.011365555098171358,0.007246482216603416,0.012916669086710214
0.02043432093692059,0.012348633654192231,0.018687160994640083
0.02456222740660366,0.018421264246343397,0.02641500375773976
0.025217325374067703,0.022809828070283426,0.030431266125658947
0.025592230837375437,0.02385880186234714,0.029092512003019218
0.028508600704579824,0.02261359147653001,0.028400052974067634
0.033796740923867884,0.02400508732314514,0.031119108761084188
0.03640924004712811,0.030983974184630263,0.03372275470994215
0.03258915069468718,0.03967547131887247,0.03527386293479369
0.025023953082466868,0.04325411320132113,0.032476328457829294
0.017143045606408464,0.037420534459742305,0.021235410221181913
0.01043815737314696,0.02386593773848363,0.006896891928357777
0.004041086257127594,0.007585436333086589,-0.008789613274158774
-0.00646415946208496,-0.01097497749791832,-0.03279947600467337
-0.02109336527768261,-0.03474814884662761,-0.05884055188677927
-0.0328338258391617,-0.05550998046573902,-0.06510499790202794
-0.037139319107253696,-0.057814868457824596,-0.04665788937075773
-0.03536345112316443,-0.045184367696241096,-0.025888734895736558
-0.0303831280211185,-0.03389541164831731,-0.016886767519365964
-0.024226785676275682,-0.028129623730035122,-0.01306439367955322
-0.020047576353718923,-0.025314520594190662,-0.01272278055860377
-0.021807658844616294,-0.02456525359985944,-0.02069067578507333
-0.02700108610475293,-0.022224686227091422,-0.03264713501830402
-0.027312849595293044,-0.013008702196817358,-0.037291226905805976
-0.020698727947884993,0.0031112419955087044,-0.027809154602695615
-0.011487892670408619,0.018146533015088614,-0.00909429524689747
-0.00294399448029022,0.02464731617542905,0.008808078848264149
0.00370564452679962,0.02468656349417973,0.02179399383786952
0.008299223045643877,0.02316662187710782,0.028815528391438586
0.0094712959151428,0.018196484148044027,0.030260459565184222
0.0084610243508609,0.01015791968029046,0.030191213662289065
0.008918803653426136,0.0055124643154368675,0.031553049752560514
0.00849259533724471,0.005965592450103846,0.03433673504894588
0.005840632481004726,0.010243550193928315,0.03535234162474154
0.00800719142159364,0.014460852990592637,0.030934453020030433
0.01571840484583907,0.009950979272332313,0.021664734819131892
0.015375070368915143,-0.0035144189972202682,0.009108144427476502
0.001452265373655229,-0.014571459070708198,-0.0029267934957020285
-0.008504434457138638,-0.012983726630339651,-0.00592744928782556
7.498109266154716e-05,0.0015877324403685475,0.0003139147597913848
0.014850202720284313,0.018638908468506275,0.0041085902384460655
0.01561579914009169,0.024454647519743876,-0.0033191869454412596
0.0035241113550927164,0.017375858392347926,-0.01599580356878159
-0.0030071364530578387,0.012723267151357845,-0.017080656047472408
0.003977944284359975,0.018685291663393448,-0.005447344361085795
0.010260570574738032,0.02051564389240258,-0.003730045969285866
0.00223364728665451,0.005555279572255795,-0.020418308567019042
-0.009660721833445655,-0.01593797935084562,-0.037448184285701666
-0.011598391122751952,-0.029424785248807667,-0.04544377787332929
-0.01079727734326279,-0.03525836399038649,-0.049016866462719466
-0.01772316248121096,-0.03877991886374324,-0.04618240083754431
-0.0285125470778778,-0.04025704522399623,-0.03666339738622321
-0.0329166996784192,-0.03506926327276956,-0.027070531638480593
-0.028208676333933636,-0.0227670128134645,-0.017394570807263792
-0.02232463374665117,-0.012587685504764575,-0.006541429626829297
-0.018997841056457264,-0.006743402948981022,0.0018788721652219648
-0.011989082079251593,0.0009740470926305921,0.009943711655744748
0.00034728085022190264,0.008962660427428744,0.020626046275704517
0.012182454370852424,0.01372942568660263,0.030458964486817012
0.01901362654964917,0.01636256398096665,0.03759590887854467
0.019688456383603094,0.01670865397358631,0.043731095875055706
0.019222784334441904,0.01740083395882563,0.04988936483919846
0.024720082338522704,0.02412282927939719,0.05512435509807244
0.03469256766250848,0.03671765066029825,0.06046552240805232
0.04441643146872175,0.0498226871849582,0.07064005374011426
0.053177380190228836,0.06032312891980007,0.08424918185577607
0.05883647949952666,0.06368769451815409,0.08845009996474901
0.05479144686910109,0.05172439817533221,0.07246814557654645
0.03986626305615523,0.029524687514718498,0.04579000738780508
0.022340419239843076,0.011652885730884665,0.02504855127394197
0.010055359163243271,0.001805376662531427,0.0126627674427613
0.005221051873222467,-0.0030006359153931426,0.0063937050339862925
0.0006985080737417814,-0.007738857670021078,0.0021096918415391594
-0.00993302159100601,-0.01655523263665182,-0.006416787001618012
-0.020004166247441186,-0.024889935964069635,-0.01468936420082627
-0.024550388286709728,-0.028714765573227125,-0.018631764272323954
-0.025327823826411033,-0.03050230254541733,-0.023548223377880203
-0.018926806337093694,-0.02683803014933082,-0.025616367677682265
-0.001093145403539398,-0.011228301100763638,-0.013082859253658595
0.022379882972822836,0.010361292150180364,0.012639685475129581
0.043429838144227705,0.030184756057343623,0.038657679389603766
0.060324262232863676,0.04872019432187082,0.05453807312022676
0.06307883079485103,0.05579541551119853,0.05218371242179137
0.03941243012688797,0.03773808094781601,0.027342898856534882
0.0007813819129992809,0.0035500983779027076,-0.00842953457910395
-0.03517797157815954,-0.031429966443160755,-0.03691268263664577
-0.06680420718814054,-0.06437273862725693,-0.05583527970112939
-0.08821722870295921,-0.08942679974246578,-0.06772249303146492
-0.08892757589659493,-0.09666971402100095,-0.06595903070440155
-0.07659121296712143,-0.09060065136691804,-0.05459808623606923
-0.0630669916749571,-0.08041418818208163,-0.048772197605823235
-0.04607390825387174,-0.06194654074085106,-0.04892453859219258
-0.02514629065470413,-0.03551882346936829,-0.043809574565003555
-0.008626772029375899,-0.015285046684356984,-0.030782112033661085
0.0019574011557961786,-0.004477762275646129,-0.015261796998092913
0.011010381501353503,0.007289297473422343,-0.001214111497428444
0.01660239246458573,0.019345360206018573,0.006883042747778746
0.011247163899232073,0.02021593709467009,0.005184209930084192
-0.004802736303636994,0.009019747436520648,-0.0014172328125875754
-0.01925830169412369,-0.0064329923370438,-0.008420301792051263
-0.0240255206380789,-0.01904565340828608,-0.014887869122459058
-0.020071254593506782,-0.019363199896359793,-0.014352367473403165
-0.009648882713551726,-0.007385631801264929,-0.00864188868131577
0.005371014058545562,0.003414516731309438,-0.006116721422405659
0.022210188921009864,0.005380450606911842,-0.004685639429239052
0.03307455461033825,0.0008670089505832743,-0.005073416485451939
0.033256087782045154,-0.0034073808551729505,-0.011988773987915093
0.027415455301040427,-0.0022192574784477225,-0.020390610205860978
0.016866799475550132,1.7839690341219634e-05,-0.023783659447723742
-0.00123521484226654,-0.0019802056278753794,-0.02370056436424955
-0.02658671690846543,-0.005294820093273988,-0.02538093160783873
-0.054384970419409547,-0.01059320812461622,-0.031049862858189028
-0.07036778227621301,-0.020073219571940335,-0.03586476130616571
-0.06251449941324044,-0.02381598660552821,-0.030297390713394975
-0.040785768034583676,-0.016954841700295143,-0.015534164216147202
-0.024234678422871636,-0.009069698569476063,-0.0037115803951804907
-0.013903073128770033,-0.0029221412778917765,0.004454819752921857
0.00015390855862107048,0.004666862993263057,0.014380065834561228
0.01571840484583907,0.00905899475527133,0.01806856426211
0.022833715902090098,0.005544575758051062,0.007857101781837307
0.014980433039117527,-0.003564370130175683,-0.007497023086782483
-0.002588820883472365,-0.011831282634296862,-0.014518557640351546
-0.009743595672703154,-0.010536121115524317,-0.009505154270742078
-0.0017008868914277276,0.00023191597443585527,0.0018927213458009965
0.003109742158805219,0.010718085957004757,0.014112315010033284
0.0025296252840027226,0.02115073686855,0.027961495589064963
0.011716782321691236,0.034794532041514774,0.04478824999258846
0.02846124422500411,0.0440640351428125,0.05914523385951797
0.039503196712741426,0.04771046784855779,0.06713621105361925
0.0443256648828683,0.05253075217875534,0.07024304389684868
0.0469578958726184,0.057286813623724495,0.0666376405527741
0.04666586424856817,0.056423372611209464,0.05450114197201601
0.038824420505489524,0.04499883491669241,0.03522308260600391
0.019005733803053215,0.0218250771634481,0.011153206759646848
-0.002801925041563078,-0.0008527371983102985,-0.012824341216183336
-0.010990649634863623,-0.008059972096163031,-0.029738807096707363
-0.0064286421024031745,-0.00408885702620754,-0.034290571113682444
0.0007734891664033285,-0.0033538617841492916,-0.03052821038971217
0.007947995822123998,-0.00470611031201374,-0.026622741466425237
0.014506868243360387,-0.0012345065716123987,-0.02270342336255927
0.010805170089858743,-0.0027651520028890435,-0.020741456113863115
-0.007249487748382217,-0.01877805805316779,-0.03002963988886703
-0.02450697818043199,-0.036739058288707716,-0.04709183036223406
-0.03144470243827409,-0.04138808159162955,-0.0545103747590687
-0.04111726339161367,-0.03921163937000076,-0.050143266483147375
-0.05717110996778072,-0.04101701603253219,-0.04689794183412762
-0.06016640730094463,-0.04064595047343482,-0.046191633624597
-0.043883671073494966,-0.032439692916473785,-0.04121977779672463
-0.023180996752312,-0.02161456881742171,-0.0309944661358729
-0.006843011298690672,-0.008341839203554302,-0.017833128192266463
0.0045107046795867575,0.006143989353516043,-0.008092537851680846
0.006183966957928652,0.006176100796130238,-0.012034937923178531
-0.0013812306542916582,-0.012295114583168574,-0.026087239817369344
-0.0060142729061156775,-0.028097512287420925,-0.03339037437604538
-0.0022060226735686767,-0.025771216666925886,-0.026848944749216085
0.002166558940588915,-0.012758946532040284,-0.012256524812443038
0.0022218081667605815,-0.004267253929619737,0.000433940991476326
0.00247042968453308,-0.0028757580830046053,0.009412826400215199
0.008022976914785545,0.0018553277954868421,0.022823449594244212
0.02058822949554166,0.017775467455991244,0.04103050566214453
0.03576992757285597,0.04037121924218003,0.05460270262959557
0.043512711983485206,0.05573119262597014,0.05696629611508365
0.04444800245510556,0.05718691135781366,0.05217447963473869
0.04939675457076767,0.052659197949212116,0.05100653207257368
0.05816559603887071,0.051856411883857235,0.056236905937921314
0.060789934282024866,0.05552068427994375,0.058715909261567986
0.0533983770949155,0.05603089942370263,0.0529961976824279
0.04098308669948249,0.04885577596846409,0.04634859100449269
0.027364152448166736,0.03726354518473957,0.04147367944067354
0.01093145403539398,0.02256720828164284,0.032291672716775535
-0.005213159126626515,0.004745357630764423,0.0204875544699142
-0.014570010216128006,-0.011670725421225886,0.008323357527998041
-0.018705809432407027,-0.02279555631801045,-0.0054057968193487
-0.023173104005716046,-0.029624589780629325,-0.014310819931666071
-0.027932430203075304,-0.0337491261875193,-0.013969206810716622
-0.026444647469738288,-0.03406667267559302,-0.011490203487069951
-0.01939247838625488,-0.02955679895733269,-0.011702557589281772
-0.016065685696060972,-0.021304158205484487,-0.009255869020319506
-0.011448428937428859,-0.007967205706388689,-0.0023174295502246347
0.003954266044572118,0.01111055914451159,0.0031022164497030965
0.01926619444071964,0.023644725578252503,0.0008494164088472764
0.02003179086052702,0.016305476971874747,-0.008886557538211996
0.007786194516906975,-0.003978250946091979,-0.01654977079194286
-0.003516218608496764,-0.015752446571296937,-0.013105941221290314
0.0018034925971751078,-0.004274389805756225,0.002562098407120861
0.021858961697489986,0.022488713644141473,0.02313274796050925
0.03472413864889229,0.04035694748990706,0.03596170557021893
0.028788793208736133,0.037299224565422014,0.035338492444162505
0.01664580257086347,0.026306407377162475,0.027652197222799924
0.013611041504719796,0.027287590345929553,0.02756448574579939
0.021393289648328796,0.04524859058146948,0.04429429588526966
0.030296307808563027,0.06361276781872098,0.061942768336482365
0.02779430713764614,0.06080836849708125,0.05358709605379992
0.0069416706311400764,0.032050787667035195,0.01564034126725311
-0.02251405966495403,-0.005830010803510577,-0.026992052948532748
-0.0375694737967331,-0.02864697474993049,-0.046122387721701845
-0.03149995166444576,-0.03075562614826265,-0.041967633547992336
-0.021290683942581417,-0.02587468687090496,-0.039470164650240294
-0.02028830512489547,-0.02400508732314514,-0.047488840205499636
-0.02323229960518569,-0.024461783395880364,-0.05112194191073228
-0.021042062424808917,-0.024971998539639245,-0.045854636897173895
-0.014309549578461579,-0.02593890975613335,-0.0427524204474708
-0.008188724593300546,-0.026577570670349014,-0.0415844728853058
-0.007253434121680193,-0.02335929053279299,-0.03309492519035937
-0.012707322019483255,-0.016466034184945723,-0.021133849563602345
-0.02074213805416273,-0.014228937016156781,-0.01594502323999181
-0.024443836207664372,-0.01983416772136799,-0.016605167514258987
-0.017727108854508938,-0.02462234060895134,-0.017634623270633674
-0.004538329292672591,-0.026281431810684767,-0.01902877411558953
0.004187102069152712,-0.026816622520921356,-0.018013167539793873
0.0035754142079664065,-0.02131486201968922,-0.010723882161696865
-0.005374960431843538,-0.012708995399084868,-0.00285754759280687
-0.018007301358665247,-0.009704791545623481,0.00048472132026610885
-0.02899400462023089,-0.011310363676333248,0.000780170505952118
-0.03386382926993348,-0.013768673005353315,-0.002391291846646137
-0.02819683721403971,-0.014021996608198634,-0.0033607344871783547
-0.01721802669907001,-0.00803142859161708,0.006476800117460483
-0.010023788176859462,0.0027187688080018723,0.0164805248890477
-0.0037885183660571193,0.014821214735485273,0.012944367447868279
0.00504346507481354,0.024208459793035045,0.002432839388383232
0.011184021926464454,0.024083581960646507,-0.004251698437762726
0.013500543052376465,0.017661293437807438,-0.004570229591080455
0.01610120305574276,0.014196825573542586,0.00022620328279085078
0.01968056363700714,0.011467352951335982,0.005391947638769668
0.022474595931974265,0.005430401739867257,0.004847213202661089
0.02160639380641951,0.0014057675988881073,0.0005862819778456745
0.017660020508443345,0.003860508989839929,0.002220485286171413
0.01733247152471132,0.008602298682536109,0.009777521488796367
0.021491948980778202,0.007985045396729909,0.012191895303074223
0.024720082338522704,0.00440640351428125,0.011240918236647381
0.028792739582034106,0.009083970321749039,0.022481836473294763
0.03698541054863263,0.023298635585632842,0.04525912213227554
0.044972870103736386,0.0385729784557851,0.06272293884243449
0.04978349915396933,0.04981555130882171,0.06906124715410465
0.05209607390658337,0.05480352872822672,0.06864115534320736
0.04881663769596518,0.05181716456510655,0.0628937454029092
0.03923484332847904,0.041816234159818826,0.05259918783916233
0.029341285470452796,0.02878255639652376,0.04092432861103862
0.023011302700499024,0.020169553899782918,0.031899279267036305
0.023184943125609977,0.02248514570607323,0.02955876774917995
0.031645967476470874,0.03166545035566485,0.03254557436072445
0.03671705716437025,0.03230411126988052,0.031045246464662685
0.020560604882455827,0.011570823155315055,0.017371488839632073
-0.013232189668114085,-0.024033630827691093,-0.005936682074878247
-0.04155136445439105,-0.05326574742081359,-0.030735948098397643
-0.05379301442471312,-0.06622806642274377,-0.049090728759140966
-0.055537311422418585,-0.06934644429438896,-0.05631538462786916
-0.05130679924698814,-0.06687743115116417,-0.05325471571990316
-0.04404547237871199,-0.059195660490234996,-0.045023686062432
-0.03567126824040657,-0.050718239640087426,-0.037919056425388745
-0.025371233932688773,-0.044570682348503136,-0.034267489146050725
-0.014964647545925622,-0.0377202412574748,-0.03319648584793894
-0.009021409359173515,-0.030113397295978745,-0.036284853117063004
-0.010351337160591483,-0.026887981282286234,-0.042203069617835876
-0.018192780903670127,-0.02568558615328803,-0.04534683360927607
-0.028765114968948274,-0.020829622442408047,-0.042964774549682616
-0.037960164753232745,-0.016166327387213235,-0.03391202684452224
-0.0415276862146032,-0.013229914357048482,-0.018927213458009965
-0.0368078237502237,-0.006425856460907313,-0.006047475519510501
-0.028536225317665656,0.001266618014226594,-0.0019665836422224988
-0.024214946556381754,0.0006886120471710779,-0.001869639378169277
-0.023082337419862594,-0.00734995242058249,0.0012325770715338196
-0.01690231683523192,-0.012912367868974772,0.007316983739255071
-0.0037135372733955725,-0.013276297551935653,0.011374793648911355
0.004708023344485566,-0.013615251668418826,0.00918662311742435
-0.002395448591871533,-0.013811488262172242,0.0029406426762810605
-0.01713909923311049,-0.009633432784258603,-0.0013202885485343535
-0.021736624125252724,0.0014057675988881073,0.00022620328279085078
-0.015548710794026095,0.014628546079800102,0.004163986960762192
-0.013832038409406461,0.016198438829827428,-0.0002908327921596653
-0.016748408276610848,0.00510571937565706,-0.013719921560294052
-0.010596012305066006,-0.0007100196755805415,-0.018350164267216976
0.004064764496915451,0.007018134180235804,-0.005308852555295478
0.013914912248663962,0.017058311904274214,0.007723226369573334
0.011330037738489573,0.01350107765023502,0.0019481180681171233
-0.0015864420657864188,-0.006165396981925506,-0.01671596095889124
-0.01617223777510633,-0.026841598087399065,-0.02882014478496493
-0.021858961697489986,-0.034045265047183554,-0.02545479390426023
-0.013532114038760274,-0.027241207151042383,-0.012644301868655925
0.0020521141149476064,-0.015566913791748254,0.0019942820033805623
0.014108284540264793,-0.004991545357473254,0.016392813412047166
0.026377559123672695,0.008563051363785426,0.03077749564013474
0.04539513204661984,0.02587468687090496,0.0430894171748939
0.0574394633520431,0.033959634533545696,0.04586386968422659
0.04936123721108589,0.025489349559534615,0.035103056374318965
0.03159071825029921,0.012370041282601696,0.01952734461643467
0.01762055677546358,0.003732063219383148,0.007617049318467425
0.006247108930696271,-0.00515210257054423,-0.0017726951141160553
-0.0023915022185735566,-0.012844577045678138,-0.007663213253730864
-0.0025730353902804603,-0.00899477187004294,-0.005161127962452473
0.0006985080737417814,0.0051235590659982795,0.0021466229897499104
-6.314197276761865e-05,0.014814078859348784,0.0034068984224417936
-0.004001622524147833,0.012430696229761841,-0.0030237377597552503
-0.010888043929116242,0.005184214013158426,-0.0073262165263077595
-0.017442969977054655,0.0013986317227516194,-0.0038500722009708072
-0.015390855862107047,0.002212121602311235,0.003743895149864898
-0.007478377399664835,0.005441105554071989,0.011102426430857064
-0.004112120976491165,0.008509532292761766,0.01680828882941812
-0.0060932003720752005,0.009326590110389625,0.01680828882941812
-0.0067246200997513874,0.008695065072310451,0.0102437772349571
-0.002277057392932248,0.008252640751848204,0.006310609950512103
0.0021547198206949866,0.005376882668843598,0.00719695750757013
-0.0030347610661436717,-0.002986364163120167,0.0021927869250133497
-0.01875316591198274,-0.014996043700829225,-0.01235346907649626
-0.03148416617125385,-0.02288832270778479,-0.025791790631683336
-0.026669590747722932,-0.019545164737840234,-0.029715725129075644
-0.009104283198431016,-0.009562074022893725,-0.02678431523984727
0.0017995462238771316,-0.002893597773345825,-0.020173639710122815
-0.002900584374012482,-0.0024440375767470902,-0.013696839592662333
-0.011748353308075046,-0.0033502938460810475,-0.010054505100377
-0.009483135035036727,0.0013272729613867408,-0.0026867410323321464
0.0029124234939064105,0.00984037319221675,0.009920629688113027
0.012608662687033851,0.015420628330950252,0.020496787256966888
0.01232057743628159,0.0163911074855126,0.02505316766746831
0.008094011634149117,0.012987294568407895,0.02313274796050925
0.01224954271691802,0.009776150306988361,0.020141324955438408
0.02580533499546615,0.010443354725749974,0.021595488916236735
0.03456233734367526,0.008841350533108451,0.02444842011551726
0.026614341521551264,0.002294184177880845,0.025741010302893552
0.009380529329289346,-0.0008206257556961032,0.023377416817405478
-0.0011720728694989213,0.00342522054551417,0.0122103608771796
-0.008938535519916016,0.0040282020790473935,-0.009362046071425417
-0.026196025951965792,-0.00794936601604747,-0.03627100393648398
-0.0443414503760602,-0.02612801047375028,-0.05712325349497934
-0.048283877300738395,-0.03985743616035291,-0.06234901096680063
-0.034522873610695504,-0.041416625096175504,-0.05283000751547952
-0.008938535519916016,-0.027640816214685702,-0.03356579733004645
0.012813874098528612,-0.006143989353516043,-0.01241348219233873
0.01772316248121096,0.00951212288993831,-0.0016803672435891774
0.01201276031903945,0.014971068134351518,-0.0044086558176584184
0.011259003019126001,0.01643392274233153,-0.00811100342578622
0.019720027369986903,0.017358018702006706,-0.002779068902859024
0.028441512358514227,0.016187735015622696,0.005285770587663758
0.031614396490087064,0.01813582920088388,0.009537469025426485
0.035004331153048594,0.029842234002792206,0.01543721995209398
0.03674468177745608,0.04251911795926288,0.021914020069554462
0.021933942790151532,0.040692333668321985,0.018728708536377175
-0.0028177105347549827,0.026299271501025987,0.008055606703470095
-0.009810684018768749,0.016665838716767384,0.002659042671174083
0.005221051873222467,0.019823463907163257,0.00786171817536365
0.0198029012092444,0.027391060549908627,0.017431501955474542
0.020955242212253443,0.029799418745973277,0.023280472553352256
0.018346689462291198,0.029260660097668447,0.024439187328464573
0.02028830512489547,0.030752058210194406,0.02057988234044108
0.01679971112948454,0.024397560510651974,0.0066706886455669264
0.003681966287011763,0.0028900298352775807,-0.013415239587555356
-0.0043923134806474725,-0.015302886374698203,-0.02497007258399412
-0.0010576280438576125,-0.013493941774098532,-0.021969416791870592
0.004463348200011044,-0.0007528349323994686,-0.010663869045854394
0.007845390116376617,0.010821556160983832,0.003683882034022427
0.010268463321333984,0.019291841134994915,0.01841479377658579
0.006977187990821861,0.02042287750262824,0.02664120704053061
-0.004680398731399733,0.01125684460530959,0.02343742993324795
-0.01434901331144134,0.002490420771634261,0.015801915040675147
-0.012360041169261352,0.004142376097231199,0.012182662516021535
-0.004052925377021522,0.008791399400153036,0.008928105079949091
0.001874527316538679,0.004174487539845395,0.00033238033389676035
0.0038358748456328333,-0.010978545435986564,-0.007820170633626555
-0.0021981299269727243,-0.029703084418130694,-0.010654636258801706
-0.018749219538684764,-0.04365729020303269,-0.015580328151410642
-0.029609638854715174,-0.042979381970066344,-0.021867856134291024
-0.019676617263709163,-0.026645361493645648,-0.017837744585792806
-0.001116823643327255,-0.010132944113812752,-0.00719695750757013
0.007541519372432454,-0.005259140712591548,-0.0031114492367557843
0.004538329292672591,-0.008684361258105719,-0.004741036151555179
-0.0018390099568568934,-0.0133369524990958,-0.004634859100449269
-0.005840632481004726,-0.016134215944599038,-0.0049903214019777495
-0.005607796456424132,-0.018310658166227834,-0.010442282156589888
-0.002616445496558198,-0.022684950237894887,-0.02295270861298184
-0.0042581367885162836,-0.028457874032313563,-0.04258623028052242
-0.011728621441585166,-0.029321315044828593,-0.053688656711379484
-0.01446345813708265,-0.021628840569694687,-0.04068427614766874
-0.01132214499189362,-0.01032918070756617,-0.018954911819168026
-0.016207755134788115,-0.004649023302921837,-0.011480970700017263
-0.03110531433464814,-0.008480988788215814,-0.015344892081567103
-0.0354502713357199,-0.010000930405287727,-0.013466019916345138
-0.019451673985724522,0.002155034593219332,-0.001223344284481132
-0.007726998917437333,0.014642817832073076,0.009666728044164113
-0.020426428190324634,0.00863084218708206,0.008415685398524919
-0.03743529710460191,-0.012826737355336917,-0.005128813207768066
-0.032451027629258014,-0.030641452130078847,-0.02055680037280936
-0.008906964533532206,-0.027858460436848583,-0.023478977474985042
0.012075902291807068,-0.005694429156917307,-0.011448655945332856
0.0186939703125131,0.01825000321906769,0.0035407738347057664
0.017277222298539657,0.029856505755065182,0.00889117393173834
0.01316510132204849,0.02627429593454828,0.0028021508704907435
0.006108985865267105,0.01512805740935425,-0.00384083941391812
0.00627867991708008,0.00964770453653158,0.0011033180527961906
0.01885577161773012,0.01259125344283282,0.014181560912928442
0.03037523527452255,0.017375858392347926,0.02515934471857422
0.0373879406250262,0.02441896813906144,0.03922549579334406
0.04786161535785494,0.034848051112538435,0.05897904369256959
0.05199346820083599,0.038726399792719586,0.0662683290706666
0.04054503926340713,0.03301413094546106,0.058706676474515294
0.02819289084074173,0.02986364163120167,0.058928263363779806
0.027940322949671255,0.033078353830689446,0.06855344386620682
0.03457417646356919,0.03637156066767859,0.06975370618305624
0.03920721871539321,0.039043946280793294,0.062238217522168376
0.04107779965863391,0.043525276494507666,0.0566246829941342
0.043204894866243064,0.048292041753681555,0.053582479660273574
0.042147266822385454,0.04770689991048955,0.04601159427706959
0.03658682684553704,0.03973255832796437,0.03433673504894588
0.034601801076655024,0.03222918457044739,0.02795687919553862
0.033591529512373125,0.02855420836015615,0.02334510206272107
0.019427995745936667,0.01685137149631607,0.004704105003344428
-0.010390800893571245,-0.006821897586482388,-0.025487108658944636
-0.047017091472088046,-0.02902874412323259,-0.04757655168250017
-0.07782248143609,-0.04426383967463416,-0.05627383708613207
-0.09129539987538063,-0.05723686249076908,-0.06398321427512636
-0.09002072130013432,-0.0648651140806746,-0.07368687346750123
-0.08160310705555117,-0.061464869101638134,-0.07355299805523725
-0.06247898205355866,-0.049722784919047365,-0.061416499474479164
-0.030418645380800288,-0.035608021921074394,-0.048721417277033455
0.00046172567586321144,-0.0243511773157648,-0.041150531893829466
0.009301601863329824,-0.024301226182809388,-0.038551502338497856
-0.007229755881892336,-0.04064595047343482,-0.04280320077626058
-0.027735111538176496,-0.06066565097435149,-0.04961699762114417
-0.031488112544551826,-0.06213207352039975,-0.04754885332134211
-0.020706620694480943,-0.042790281252449415,-0.034766059646895865
-0.01008693014962708,-0.022820531884488158,-0.02201558072713403
-0.005816954241216869,-0.014607138451390637,-0.0136091281156618
-0.005114499794177111,-0.012323658087714524,-0.005451960754612139
-0.008713592241931375,-0.009904596077445142,0.0005447344361085794
-0.016065685696060972,-0.007189395207511513,0.001961967248696155
-0.01911228588209857,-0.007478398191039271,0.0018742557716956208
-0.018204620023564055,-0.015452739773564449,-0.0016434360953784261
-0.019522708705088095,-0.02534663203680486,-0.010451514943642576
-0.017091742753534776,-0.024936319158956808,-0.01581576422125418
-0.007486270146260787,-0.015666816057659082,-0.01205801989081025
-0.002734836695497483,-0.012502054991126721,-0.0054150296064013875
-0.008303169418941854,-0.021635976445831175,-0.0028806295604385896
-0.01035528353388946,-0.02783705280843912,-0.003037586940334282
0.005260515606202229,-0.016505281503696408,-0.00030006557921235307
0.030635695912188978,0.0037463349716561237,0.00450560008171164
0.041365884909386176,0.015313590188902935,0.006832262418988963
0.02943599842960422,0.012776786222381502,0.007880183749469027
0.013090120229386944,0.006161829043857262,0.010853141180434494
0.010635476038045768,0.008067107972299519,0.01586192815651762
0.0215748228200357,0.015827373270730062,0.019518111829381984
0.02647227208282412,0.01664443108835792,0.015391056016830542
0.009179264291092563,0.006400880894429605,0.003868537775076183
-0.018974162816669405,-0.008024292715480592,-0.0064444853627760755
-0.03833507021654048,-0.017729084261104075,-0.013853796972558025
-0.046306744278452334,-0.019042085470217837,-0.021276957762919005
-0.04312991377358152,-0.012730403027494331,-0.021983265972449623
-0.02421889292967973,0.0020123170704895747,-0.007123095211148628
0.005935345440156154,0.02559281976351369,0.02107845284128622
0.03670127167117834,0.05194204239749509,0.05146355503168173
0.060048016102005344,0.0714122804359022,0.07406080134313509
0.06991394934694575,0.07919752130081045,0.08568949663599536
0.06568738354481328,0.0770246470172499,0.08680204747584423
0.05673306253170536,0.07111257363816971,0.08299352281661052
0.050916108290488496,0.06628158549376743,0.07960047357474775
0.04479133693202948,0.058114575255557084,0.06998914225289977
0.03566732186710859,0.04320059413029747,0.05031868943714844
0.024822688044270083,0.028443602280040586,0.03180233500298309
0.013161154948750513,0.02152180242764737,0.023765193873618366
0.007805926383396856,0.022146191589590056,0.021240026614708255
0.006953509751034005,0.019555868552044966,0.011979541200862405
-0.004546222039268543,0.005844282555783553,-0.006185967325300818
-0.022908696994751645,-0.009083970321749039,-0.022828065987770554
-0.029731976426952435,-0.013850735580922926,-0.03405975143736525
-0.021365665035242964,-0.0121024459274834,-0.039996433512243496
-0.008362365018411496,-0.010564664620070267,-0.03391202684452224
-0.0020323822484577254,-0.01300156632068087,-0.017994701965688496
-0.006436534848999127,-0.0234413531083626,-0.008738832945368992
-0.018113853437710603,-0.03669267509382055,-0.01381224943082093
-0.026353880883884837,-0.03895831576715544,-0.020847633164969025
-0.020150182059466303,-0.025642770896469103,-0.020127475774859377
-0.0034767548755170025,-0.0061725328580619935,-0.018617915091744923
0.010351337160591483,0.006607821302387753,-0.023049652877035063
0.01489361282656205,0.0051592384466807185,-0.033422689130729794
0.010895936675712195,-0.008448877345601619,-0.04739651233497276
-0.0002525678910704746,-0.024968430601571,-0.05496739771817674
-0.019791062089350473,-0.03721359405178416,-0.04988474844567212
-0.043082557294005806,-0.04404976339053952,-0.03958095809487255
-0.0521236985196692,-0.04446364420645582,-0.027416761152956385
-0.03663418332511275,-0.03496579306879048,-0.010903921509224278
-0.009605472607273988,-0.016569504388924797,0.007783239485415805
0.01324797516130599,0.0037820143523385626,0.02686741032332146
0.02737993794135864,0.019163395364538132,0.04240157453946866
0.03355206577939336,0.026698880564669306,0.04752577135371039
0.035679160987002516,0.027844188684575607,0.04486211228900996
0.03429398395941288,0.023526983622000456,0.04059194827714186
0.02279030579581236,0.013558164659326922,0.032924118629884654
0.003543843221582597,0.0029685244727789472,0.021964800398344246
-0.007115311056251027,0.0012095310051346913,0.017486898677790668
0.00045777930256523525,0.012659044266129453,0.023585154526090953
0.017439023603756678,0.0276729276572999,0.02822001362654022
0.028094231508292326,0.03150132520452563,0.020658361030388924
0.025150237028002106,0.02236740374982118,0.005230373865347632
0.008374204138305424,0.004595504231898178,-0.01268584941039302
-0.020734245307566776,-0.02284907538903411,-0.03580474819032324
-0.05187902337519468,-0.05350123133331769,-0.05899750926667496
-0.0694759019108704,-0.071672739914884,-0.06799486024951922
-0.06941275993810278,-0.07235064814785035,-0.06070095847789586
-0.05930215154868785,-0.06026960984877642,-0.04783506971997543
-0.04655931216952281,-0.037698833629065336,-0.03437828259068298
-0.03713537273395572,-0.011792035315546179,-0.01801778393332022
-0.03530425552369478,0.005601662767142966,0.00036469508858116763
-0.03246286674915194,0.012905231992838283,0.015201783882250443
-0.013425561959714918,0.017536415605418902,0.021710898754395334
0.015035682265289193,0.024615204732814852,0.027356748037113913
0.03182750064817778,0.03500860832560941,0.043227908980684224
0.03656709497904716,0.04476335100418831,0.05946838140636204
0.04178420047897165,0.046426010143989976,0.05841122728882929
0.05021365384344874,0.04131315489219643,0.04495444015953684
0.060738631429151174,0.04211950889561956,0.03889773185297365
0.06902601535490112,0.05108573726111655,0.0440773253895315
0.061078019532777125,0.049144778951991853,0.04382342374558258
0.032226084351273374,0.024247707111785727,0.025717928335261833
-0.001949508409200226,-0.009508554951870066,-0.0054150296064013875
-0.029692512693972675,-0.03712082766200982,-0.040125692530981125
-0.049455950170237316,-0.05623070395552429,-0.07197419146922765
-0.05382458541109693,-0.061514820234593544,-0.08813156881143128
-0.039242736075074995,-0.048973517924716145,-0.07653980466678176
-0.02024884139191571,-0.030473759040871382,-0.05039255173356994
-0.012502110607988495,-0.021700199331059565,-0.03541235474058401
-0.013903073128770033,-0.023027472292446307,-0.032102400582195434
-0.015292196529657643,-0.025450102240783933,-0.025948748011579027
-0.016176184148404306,-0.02544653430271569,-0.020173639710122815
-0.018429563301548695,-0.025842575428290764,-0.024176052897462972
-0.017896802906321913,-0.027308997974339017,-0.030011174314761652
-0.01056049494538422,-0.021707335207196053,-0.02351129222966945
-0.0006037951145903534,-0.0054732169966861845,-0.0066706886455669264
0.0005327603952267825,0.006411584708634337,0.0038546885944971514
-0.011243217525934096,0.001416471413092839,-0.0007940196865311497
-0.023800577360094256,-0.01170283686384008,-0.011134741185541471
-0.026799821066556144,-0.019973317306029505,-0.014467777311561764
-0.025327823826411033,-0.022003474066860297,-0.010603855930011924
-0.025698782916420793,-0.021525370365715613,-0.00740931160978195
-0.025544874357799723,-0.02088670945149995,-0.00848954769494642
-0.022249652653989625,-0.02055132327308502,-0.011591764144649517
-0.015146180717632525,-0.018285682599750126,-0.015109456011723565
-0.0038279820990368813,-0.013818624138308729,-0.021300039730550727
0.006108985865267105,-0.009786854121193091,-0.029078662822440187
0.006503623195064721,-0.006771946453526974,-0.03225012517503844
-0.001807438970473084,-0.0063295221330647265,-0.030879056297714307
-0.012636287300119684,-0.01173851624452252,-0.03024661038460519
-0.02236409747963093,-0.02107937810718512,-0.031114492367557842
-0.026034224646748767,-0.027144872823199797,-0.03062053826023905
-0.023279656084761405,-0.027116329318653844,-0.026558111957056423
-0.02350065298944807,-0.024971998539639245,-0.019615056093435206
-0.031523629904233616,-0.02436901700610602,-0.014121547797085972
-0.039033578290282256,-0.02535733585100959,-0.009860616572270556
-0.03358758313907515,-0.021254207072529074,0.0026359607035423634
-0.013899126755472058,-0.002832942826185678,0.025584052922997858
0.006357607383039604,0.023609046197570066,0.04490365983074705
0.015339553009233358,0.0401000559489935,0.05068800091925595
0.01781787544036239,0.043956997000765184,0.051292748471207
0.020694781574587016,0.04246559888823922,0.05263150259384673
0.022620611743999385,0.037231433742125376,0.04707798118165503
0.028915077154271367,0.03440205885400795,0.03450754160942061
0.042340639113986285,0.03720289023757943,0.02575024308994624
0.048714031990217795,0.03398817803809165,0.022343344667504445
0.040095152707437846,0.020854598008885755,0.016462059314942327
0.031460487931466,0.014414469795705466,0.01141634119064845
0.03778652432812179,0.027098489628312628,0.019411934778276074
0.05039518701515564,0.05256999949750602,0.03892081382060537
0.05286561669968872,0.07618261363314432,0.054473443610857944
0.043339071558374256,0.08364674007191063,0.05510127313044071
0.029128181312362084,0.07048461653815878,0.0430571024202095
0.021476163487586297,0.050372149647467765,0.02904634806775578
0.02779430713764614,0.0425369576496041,0.01985972495033143
0.03678019913713787,0.04649023302921837,0.017136052769788534
0.035600233521042995,0.04489179677464509,0.022352577454557133
0.03010688189026017,0.03168329004600607,0.027153626721954784
0.02726549311571733,0.015524098534929327,0.021466229897499106
0.02238777571941879,0.003175464880737095,0.011180905120804911
0.01233241655617552,-0.005184214013158426,0.002779068902859024
-0.00036701271671178346,-0.01229154664510033,-0.006582977168566393
-0.015588174527005855,-0.02178582984469742,-0.017634623270633674
-0.029854313999189697,-0.033285294238647595,-0.02636883982247632
-0.033078500983636225,-0.038854845563176366,-0.02761526607458917
-0.026357827257182814,-0.03581496232903254,-0.022837298774823243
-0.019901560541693807,-0.03165831447952837,-0.018788721652219648
-0.010493406599318626,-0.025992428827157008,-0.01421387566761285
0.006531247808150555,-0.011503032332018421,-0.005096498453083659
0.02130646943577332,0.006743402948981022,0.004071659090235314
0.0263104707776071,0.013394039508187702,0.008946570654054466
0.023362529924018903,0.0015734606880955719,0.009500537877215734
0.016472162145752516,-0.015866620589480743,0.00535963288408526
0.010548655825490291,-0.018863688566805644,0.0016757508500628334
0.008788573334592922,-0.004602640108034666,0.0067722493031464924
0.010339498040697555,0.014093355369563512,0.017616157696528297
0.01161023024264588,0.025153963381119686,0.019813561015067992
0.007825658249886737,0.02011603482875926,0.0038916197427079024
-0.003157098638380933,0.0019480941852611843,-0.021456997110446418
-0.015311928396147525,-0.014496532371275076,-0.0353800399858996
-0.020264626885107613,-0.022852643327102354,-0.028243095594171944
-0.01970029550349702,-0.025332360284531882,-0.014209259274086505
-0.020221216778829876,-0.02244946632539079,-0.013364459258765572
-0.01964899265062333,-0.01694413788609041,-0.02640577097068707
-0.012123258771382782,-0.011442377384858274,-0.03524616457363563
-0.001712726011321656,-0.005755084104077455,-0.028104603788381626
0.0020797387280334393,-0.0016341156352557187,-0.013650675657398893
0.0009550223381102322,-0.0013843599704786438,-0.004884144350871839
0.003350470929981765,-0.0028614863307316295,-0.0020542951192230327
0.0074349672933870965,-0.0012915935807043017,0.0023128131566982906
0.00801903054148757,0.003942571565409539,0.010982400199172123
0.007754623530523167,0.00813133085752791,0.01705757407984069
0.010884097555818265,0.00814917054786913,0.013387541226397293
0.015576335407111928,0.005951320697830871,0.0063937050339862925
0.013997786087921462,0.0014878301744577177,0.005548905018665361
0.0025611962703865317,-0.00854877961151245,0.004856445989713776
-0.012695482899589326,-0.020636953786722874,-0.0029314098892283726
-0.022340419239843076,-0.025107580186232516,-0.007141560785254003
-0.01803492597175108,-0.019184802992947596,0.004773350906239586
-0.0025098934175128416,-0.00886632609958616,0.025842570960473116
0.009976431697283747,0.00204442851310377,0.04062887942535261
0.015714458472541094,0.01275537859397204,0.045272971312854564
0.02412812634382628,0.01775405982758178,0.043444879476422386
0.035150346965073714,0.01281960147920043,0.03552314818521626
0.04104622867225011,0.008220529309234007,0.0243053119162006
0.04586869684237698,0.018713835167939397,0.01879333804574599
0.05299190064522396,0.03963622400012179,0.020053613478437874
0.04628701241196245,0.051339060863961866,0.018170124919689567
0.015978865483505498,0.043635882574623225,0.011023947740909219
-0.016851013982358228,0.024347609377696557,0.005733560759719116
-0.02839020950564054,0.007021702118304048,0.00565508206977127
-0.020911832105975706,-0.001177419562520496,0.013392157619923635
-0.008389989631497329,0.00018196484148044027,0.02665505622110964
0.002541464403896651,0.005505328439300379,0.033224184209097
0.008026923288083522,0.007521213447858198,0.028718584127385365
0.004656720491611876,0.004984409481336766,0.019425783958855105
-9.471295915142798e-05,0.0019195506807152328,0.009952944442797434
0.003429398395941288,0.00098118296876708,0.00096020985347953
0.007620446838391977,-0.000146285460798001,-0.012219593664232286
0.002399394965169509,-0.0028757580830046053,-0.03167307598424546
-0.006239216184100319,-0.0050022491716779855,-0.04717492544570825
-0.014060928060689079,-0.008827078780835475,-0.050120184515515656
-0.025536981611203772,-0.019156259488401644,-0.04742882708965716
-0.035856747785411446,-0.027862028374916827,-0.044986754914221244
-0.03653552399266335,-0.021461147480487223,-0.03832991544923335
-0.03240761752298028,-0.00808494766264074,-0.03000655792123531
-0.028982165500336964,-0.0030969702432357285,-0.02275420369134905
-0.01974370560977476,0.0003710655590973684,-0.008715750977737271
-0.0064878377018728174,0.009119649702431478,0.007335449313360447
-0.003583306954562359,0.0111926217200812,0.010497678878906014
-0.013859663022492296,0.0009098242074022014,0.0020589115127493765
-0.027675915938706854,-0.012462807672376038,-0.008563409991367923
-0.0333468543678986,-0.018574685583277885,-0.017593075728896578
-0.02255352339793379,-0.013797216509899266,-0.019628905274014237
-0.0022178617934626053,-0.002383382629586943,-0.010299173957273228
0.012809927725230635,0.009455035880846407,0.00017542295400106795
0.014206943872714197,0.011474488827472469,-0.0030560525144396576
-0.0008918803653426135,-0.005765787918282186,-0.018668695420534707
-0.023125747526140335,-0.031551276337481046,-0.033584262904151826
-0.03567126824040657,-0.04590865912409461,-0.037762099045493054
-0.03584490866551752,-0.046814915393428566,-0.03124375138629547
-0.029526765015457673,-0.04490963646498631,-0.02033521348354485
-0.016945726941509656,-0.040296292542746914,-0.009006583769896936
0.0005051357821409492,-0.02481144132656827,-0.0004893377137924527
0.01629457534734359,-0.000585141843192004,0.0033653508807046984
0.021140721757258323,0.021304158205484487,0.00486106238324012
0.008433399737775066,0.028935977733458247,0.004634859100449269
-0.014597634829213838,0.016119944192326062,0.0017542295400106796
-0.033129803836509916,-0.0051199911279300354,-0.002040445938644001
-0.03630268796808275,-0.013215642604775505,-0.005511973870454609
-0.020394857203940825,-0.005815739051237601,-0.009205088691529724
0.002063953234841535,-5.3519071023658905e-05,-0.010003724771587218
0.014408208910910983,-0.0025831871614086033,-0.002345127911382698
0.017924427519407746,-0.0020337246988990382,0.01131016413954254
0.021353825915349036,0.009579913713234944,0.02491005946815165
0.024380694234896753,0.023573366816887625,0.03774363347138768
0.02062769322852142,0.02536447172714608,0.0443404598205331
0.008488648963946733,0.01193832077634418,0.03682497115964524
-0.008165046353512688,-0.008366814770032009,0.019287292153064788
-0.027541739246575662,-0.02760870477207151,0.0011633311686386613
-0.04379290448764152,-0.04038905893252125,-0.0126627674427613
-0.04507547580948377,-0.04012859945353945,-0.01771310196058152
-0.03015029199653791,-0.027644384152753946,-0.013618360902714486
-0.014096445420370866,-0.016219846458236892,-0.011319396926595228
-0.010307927054313746,-0.012459239734307794,-0.019162649527853504
-0.016093310309146805,-0.011460217075199494,-0.03060207268613367
-0.022052333989090817,-0.01229154664510033,-0.03427672193310341
-0.024116287223932352,-0.018132261262815638,-0.029609548077969734
-0.02227333089377748,-0.02654902716580306,-0.024868511926414556
-0.013054602869705157,-0.024008655261213385,-0.018110111803847095
0.005734080401959369,-0.002936413030164752,-0.00192041970695906
0.020955242212253443,0.01931681670147262,0.01347986909692417
0.020264626885107613,0.026377766138527353,0.013092092040711283
0.014281924965375744,0.026452692837960475,0.003522308260600391
0.015481622447960499,0.025924638003860374,-0.0033238033389676037
0.01707990363364085,0.015973658731528062,-0.011425573977701137
0.010453942866338864,-0.0009098242074022014,-0.018576367550007827
0.0010773599103474933,-0.008017156839344104,-0.00974520673411196
-0.00341755927604736,-0.0016020041926415234,0.010054505100377
-0.005189480886838659,0.004891643091562424,0.020884564313179775
-0.007111364682953051,0.0038819166182493927,0.0209399610354959
-0.006543086928044483,0.0007421311181947368,0.016305101935046633
-0.004005568897445809,-0.0028222390119809464,0.0030560525144396576
-0.004636988625121995,-0.011581526969519787,-0.019601206912856172
-0.009621258100465893,-0.02489350390213788,-0.043671082759213234
-0.012304791943089685,-0.03375269412558755,-0.05846662401114541
-0.005351282192055681,-0.028047561154465512,-0.05256687308447792
0.00890301816023423,-0.009950979272332313,-0.026267279164896757
0.020201484912339994,0.005273412464864524,0.002225101679697757
0.027711433298388637,0.01215596499850706,0.02081993480381096
0.04143691962874974,0.02219614272254547,0.036557220335117296
0.05798406286716381,0.03677116973132191,0.053319345229271974
0.06364316217646163,0.04232644930357771,0.06242748965674848
0.05732896489969976,0.036764033855185424,0.06100564045063456
0.04670138160824995,0.031465645823843195,0.05770030268577233
0.0358646405320074,0.03073421851985319,0.05673086004524011
0.02112098989076844,0.022228254165159667,0.04620086641164969
-0.002332306619103914,-0.0038926204324541244,0.014435462556877356
-0.02848097609149399,-0.03275723940454749,-0.025713311941735487
-0.04682371918048721,-0.04628329262126022,-0.050724932067466706
-0.049467789290131244,-0.0412132526262856,-0.04976472221398717
-0.03427819846622098,-0.018228595590658224,-0.02720902344427091
-0.013678129850785392,0.008199121680824544,-0.0031345312043875037
-0.0001499621853230943,0.01842483218441164,0.0055396722316126724
0.009483135035036727,0.019309680825336132,0.008434150972630294
0.01758109304248382,0.02449389483849456,0.017883908521056244
0.01756925392258989,0.027262614779451848,0.022698806969032925
0.01061179779825791,0.022510121272550938,0.014675515020247238
0.0066062289008121024,0.019320384639540864,0.0034115148159681373
0.007048222710185433,0.01912771598385569,-0.007806321453047525
0.007095579189761146,0.015302886374698203,-0.02094919382254859
0.009159532424602681,0.013725857748534388,-0.02713977754137575
0.015272464663167763,0.019245457940107742,-0.022126374171766282
0.015742083085626926,0.017839690341219634,-0.017431501955474542
0.002229700913356534,0.002158602531287576,-0.019998216756121748
-0.018686077565917145,-0.015288614622425228,-0.022214085648766816
-0.03413218265419586,-0.02550362131180759,-0.018308616725479884
-0.03805093133908619,-0.03039883234143826,-0.014472393705088108
-0.030935620282835165,-0.03089120779485592,-0.015040210108828406
-0.01651162587873228,-0.02574980903851642,-0.014486242885667138
-0.005189480886838659,-0.018820873309986715,-0.011047029708540938
-0.0061326641050549625,-0.015178008542309666,-0.008152550967523316
-0.017671859628337273,-0.01426461639683922,-0.004551764016975079
-0.030986923135708857,-0.013511781464439751,-0.00019850492163278743
-0.02809028513499435,-0.008570187239921912,0.0054150296064013875
0.000903719485236542,0.006247459557495116,0.019070321657326625
0.0324036711496823,0.02728402240786131,0.038311449875127974
0.038264035497176906,0.04143089684844848,0.04994476156151459
0.025497517878224008,0.04250127826892166,0.04791816480344962
0.017517951069716202,0.036307337782450204,0.03719428264175275
0.015813117804990496,0.02571056171976574,0.022195620074661443
0.007103471936357099,0.0074213111819473685,0.0009094295246897471
-0.007048222710185433,-0.012780354160449746,-0.02201558072713403
-0.016547143238414063,-0.02492918328282032,-0.033450387491887855
-0.020971027705445348,-0.028746877015841322,-0.03157613172019223
-0.022561416144529743,-0.029260660097668447,-0.029263318563493942
-0.021902371803767723,-0.03245396466874676,-0.03750819740154414
-0.020793440907036418,-0.038587250208058074,-0.05341628949332519
-0.01610909580233871,-0.03792718166543294,-0.06340154869080704
-0.002620391869856174,-0.025703425843629252,-0.05631538462786916
0.014641044935491575,-0.010050881538243142,-0.03698654493306728
0.02286134051517593,-0.0013094332710455211,-0.021964800398344246
0.019869989555309997,0.0005137830818271254,-0.015843462582412243
0.016409020172984897,0.005533871943846331,-0.00909429524689747
0.015426373221788834,0.014150442378655415,0.0009094295246897471
0.005256569232904253,0.013797216509899266,0.008078688671101814
-0.01849665164761429,0.004759629383037399,0.011254767417226414
-0.03949135759284749,5.708700909190283e-05,0.015931174059412776
-0.04571084191045793,-0.0011988271909299595,0.022149456139398
-0.040702894195326175,-0.005701565033053795,0.022925010251823776
-0.02497265022959318,-0.006475807593862727,0.02061681348865183
-0.003547789594880573,-0.0001998045318216599,0.024240682406831787
0.007979566808507808,0.0032646633324431933,0.03195929238287878
0.005315764832373896,-0.00440640351428125,0.03306722682920131
-0.0020047576353718925,-0.01907062897476379,0.02157702334213136
-0.0064681058353829365,-0.026081627278863106,0.0062690624087750075
-0.003662234420521882,-0.018346337546910275,-0.0001569573798956924
0.007876961102760427,-0.0026973611795924088,-0.00035546230152847983
0.021018384185021062,0.015977226669596306,0.0004431737785290138
0.026365720003778764,0.03495508925458576,0.004690255822765396
0.023761113627114496,0.04255479733994532,0.007035383734148094
0.021661643032591174,0.0339025475244538,0.00511034763366269
0.023137586646034262,0.023191597443585527,0.010216078873799037
0.02041064269713273,0.020911685017977657,0.021036905299549123
0.015071199624970978,0.02349487217938626,0.02661350867937255
0.019522708705088095,0.028604159493111563,0.030357403829237444
0.025596177210673414,0.03327102248637462,0.035186151457793156
0.018082282451326794,0.03276437528068398,0.036815738372592555
0.011341876858383502,0.035565206664255465,0.03887926627886827
0.02039091083064285,0.04736080991786989,0.04311711553605197
0.03073435524463838,0.05201340115885997,0.040305731878508534
0.02972803005365446,0.039061785971134515,0.027425993940009073
0.02365456154806914,0.020529915644675555,0.013590662541556423
0.01470024053496122,0.005216325455772621,0.0033745836677573863
-0.0016416912919580851,-0.011899073457593497,-0.0070769312758851895
-0.021022330558319036,-0.03270372033352383,-0.020967659396653966
-0.0339269712427011,-0.050200888620192056,-0.033394990769571725
-0.034846476221129546,-0.055352991190736285,-0.03354733175594107
-0.023449350136574378,-0.04483470976555319,-0.02163703645797383
-0.005978755546433892,-0.027080649937971407,-0.007478557512677108
0.00810190438074507,-0.014978204010488006,0.0062367476540906
0.01704833264725704,-0.00891270929447333,0.021207711860023848
0.02371770352083676,-0.001416471413092839,0.030223528416973473
0.023658507921367117,0.004217302796664322,0.023054269270561405
0.013970161474835627,0.0010882211108143977,0.003656183672864364
0.0022691646463362954,-0.005141398756339499,-0.013909193694874152
-0.0065075695683626976,-0.004748925568832667,-0.020062846265490562
-0.013366366360245274,0.005241301022250329,-0.01381224943082093
-0.014597634829213838,0.01973069751738892,-0.0027929180834380556
-0.010260570574738032,0.02055132327308502,-0.002345127911382698
-0.011874637253610284,-0.005023656800087449,-0.02078300365560021
-0.02399394965169509,-0.03499790451140468,-0.042807817169786926
-0.03034761066143672,-0.03739912683133284,-0.04558226967911961
-0.011598391122751952,-0.014885437620713664,-0.02760141689401014
0.021933942790151532,0.005919209255216675,-0.005950531255457279
0.039037524663580236,0.013122876215001163,0.006984603405358311
0.03298773439778277,0.015913003784367916,0.01391842648192684
0.02000021987414321,0.02069760873388302,0.019531961009961015
0.00743102092008912,0.022752741061191524,0.01985972495033143
0.001069467163751541,0.02128631851514327,0.0157234363507273
0.011874637253610284,0.025025517610662906,0.016628249481890706
0.031389453212102424,0.03566510893016629,0.0232112266504571
0.037585259289925003,0.04259047672062776,0.028293875922961724
0.02991350959865934,0.041562910556973504,0.03219472845272232
0.021002598691829157,0.034823075546060726,0.03551391539816357
0.0072771123614680504,0.021172144496959464,0.02912944315122997
-0.01485414909358229,0.0022228254165159666,0.009168157543318973
-0.03060017855250719,-0.015074538338330591,-0.011762570705124242
-0.032786469359585985,-0.024097853712919483,-0.02008592823312228
-0.02864672377000899,-0.021393356657190585,-0.014929416664196152
-0.016113042175636687,-0.007339248606377758,-0.003300721371335884
0.010039573670051366,0.01207390242293745,0.009842150998165182
0.03719456833342537,0.02657400273228077,0.024069875846357062
0.047478817147951255,0.030405968217574745,0.03735585641517479
0.04600681990780615,0.031522732832935094,0.04736419758028835
0.047336747709224115,0.037887934346682264,0.051482020605787104
0.04339432078454592,0.03640724004836103,0.039465548256713945
0.020544819389263922,0.012023951289982035,0.00722003947520185
-0.009277923623541967,-0.02009819513841804,-0.02652118080884567
-0.024747706951608536,-0.03230767920794876,-0.03929935808976557
-0.023678239787856995,-0.02441183226292495,-0.030865207117135272
-0.017032547154065134,-0.01612708006846255,-0.01684983637115521
-0.010339498040697555,-0.012366473344533451,-0.008923488686422747
-0.0057577586417472265,-0.006918231914324975,-0.009348196890846384
-0.011069577100823146,-0.006921799852393219,-0.01468936420082627
-0.025071309562042583,-0.01787893765997032,-0.016900616699944995
-0.031132938947733974,-0.025253865647030516,-0.011384026435964043
-0.02274689568953462,-0.02094022852252361,-0.003434596783599857
-0.010615744171555887,-0.014931820815600835,0.002562098407120861
-0.0011128772700292788,-0.010589640186547976,0.010248393628483444
0.010619690544853863,0.002411926134132895,0.025237823408522066
0.022486435051868193,0.025307384718054174,0.04368493193979227
0.020671103334799157,0.03898685927170139,0.05147278781873441
-0.00038674458320166427,0.028500689289132488,0.038546885944971514
-0.028319174786276966,0.002954252720505972,0.00901120016342328
-0.04406520424520187,-0.017368722516211438,-0.018691777388166426
-0.03794043288674286,-0.019912662358869355,-0.028340039858225165
-0.015978865483505498,-0.006721995320571559,-0.02026135118712335
0.0049290202491722316,0.008891301666063866,-0.0038546885944971514
0.012170615250958496,0.013515349402507995,0.006846111599567994
0.010217160468460294,0.006176100796130238,0.002114308235065503
0.009360797462799466,-0.002493988709702505,-0.009985259197481841
0.014491082750168482,-0.001958797999465916,-0.015446452739146669
0.026949783251879238,0.012544870247945648,-0.008124852606365253
0.03699330329522858,0.03350650639887872,0.010156065757956566
0.030248951328987313,0.04229433786096351,0.027407528365903697
0.009167425171198633,0.030958998618152555,0.03017274808818369
-0.010576280438576125,0.011581526969519787,0.019578124945224453
-0.017004922540979298,0.00032111442614195343,0.0074000788227292615
-0.011854905387120402,0.000438856382394003,0.0025851803747525804
-0.0099843244438797,-0.0018731674858280618,0.00417321974781488
-0.02046194555000642,-0.01678001273495119,0.003919318103865966
-0.03183144702147576,-0.03170826561248378,-0.0014633967478510142
-0.029806957519613982,-0.0355759104784602,-0.0088450099964749
-0.019735812863178808,-0.03888695700579056,-0.017052957686314343
-0.017671859628337273,-0.05099653880941045,-0.026885875897426838
-0.02350065298944807,-0.06022679459195749,-0.03203315467930028
-0.016823389369272395,-0.04670074137524476,-0.019993600362595405
0.009352904716203514,-0.014707040717301468,0.005059567304872907
0.03424662747983717,0.006425856460907313,0.022140223352345313
0.04235247823388021,0.004781037011446863,0.023894452892355995
0.04147243698843153,-0.0009740470926305921,0.01595887242057084
0.04003990348126618,0.00470611031201374,0.0011171672333752222
0.030391020767714456,0.012434264167830085,-0.014795541251932179
0.003161045011678909,0.003575073944380415,-0.026595043105267172
-0.0327351665067123,-0.01972356164125243,-0.03833453184275969
-0.0552373870517724,-0.03704590096257669,-0.05268228292263651
-0.05801958022684559,-0.0448846608985086,-0.0635031093483866
-0.055071639373257396,-0.05418270750435228,-0.06305993556985759
-0.05107001684910956,-0.058885249878297775,-0.04997707631619899
-0.041089638778527844,-0.047610565582646966,-0.030749797278976677
-0.03515823971166966,-0.030395264403370016,-0.016605167514258987
-0.04730912309613828,-0.024968430601571,-0.017186833098578318
-0.06863927077169946,-0.031041061193722165,-0.030057338250025094
-0.07218706036658003,-0.03211501055226359,-0.03805754823117906
-0.04419148819073711,-0.017004792833250557,-0.027213639837797253
-0.0029795118399720054,0.006011975644991017,-0.008835777209422213
0.027375991568060663,0.02115073686855,-0.005678164037402989
0.04777084877200149,0.022824099822556402,-0.017625390483580985
0.06341032615188104,0.014111195059904732,-0.026599659498793515
0.06278285279750283,0.0016483873875286943,-0.024263764374463506
0.04097124757958855,-0.00685044109102834,-0.017371488839632073
0.012482378741498613,-0.010828692037120318,-0.014763226497247772
-0.008626772029375899,-0.015995066359937526,-0.017353023265526697
-0.022443024945590456,-0.024083581960646507,-0.023091200418772155
-0.03505958037922026,-0.03029179419939094,-0.03050512842208045
-0.04486631802469103,-0.029813690498246254,-0.034470610461209854
-0.04528068722097853,-0.024019359075418117,-0.03049127924150142
-0.03491356456719514,-0.015142329161627227,-0.019402701991223386
-0.016835228489166326,-0.0022335292307206983,-0.0041593705672358485
0.005209212753328539,0.014685633088892003,0.0136829904120833
0.025154183401300084,0.03191877395851017,0.032790243217620675
0.036385561807340254,0.04248700651664868,0.049358479583668916
0.03876522490601988,0.044931044093395774,0.05894672893788518
0.036721003537668225,0.04471339987123289,0.0626721585136447
0.03343762095375206,0.04357879556553133,0.06565434873166286
0.03206428304605635,0.042715354553016296,0.06719160777593537
0.036594719592132986,0.04511657687294446,0.06586208644034833
0.04559639708481662,0.0469148176593394,0.06475876838755214
0.05144886868571528,0.04436017400247674,0.06332768639438553
0.049424379183853506,0.04029272460467867,0.056656997748818605
0.03645659652670382,0.03246466848295149,0.03633563344585279
0.012636287300119684,0.015078106276398835,-0.0013295213355870414
-0.009384475702587323,-0.007435582934220344,-0.0427939679892079
-0.02037117896415297,-0.02813675960617161,-0.07009993569753202
-0.030963244895920998,-0.04640817045364876,-0.07648440794446563
-0.0517764176694473,-0.05805035237032869,-0.06758400122567461
-0.07118468154889408,-0.05801110505157801,-0.05901135844725399
-0.06631485689919149,-0.04837053639118292,-0.05598762068749874
-0.034878047207513356,-0.03210073879999061,-0.04336640078647454
-0.0023401993656998665,-0.013351224251368775,-0.015201783882250443
0.010521031212404459,-0.0008456013221738107,0.011139357579067815
0.007312629721149836,-2.497556647770749e-05,0.019541193797013703
0.00033149535702999797,-0.00771388210354337,0.013955357630137591
-0.004266029535112236,-0.015702495438341523,0.0072754361975179765
-0.004123960096385094,-0.01546344358776918,0.005031868943714844
-0.00022888965128261762,-0.004816716392129302,0.0054888919028228894
-0.0013693915343977296,0.004727517940423203,2.7698361158063364e-05
-0.01130241312540374,-0.00028543504545951414,-0.01720068227915735
-0.017979676745579414,-0.010400539468931047,-0.033034912074516906
-0.015201429943804192,-0.006743402948981022,-0.032582505508935204
-0.014996218532309431,0.005772923794418674,-0.022126374171766282
-0.02167742852578308,0.012923071683179504,-0.010793128064592023
-0.02049351653639023,0.015852348837207767,0.005484275509296546
-0.003058439305931529,0.020804646875930338,0.0234743610814587
0.017999408612069293,0.026813054582853112,0.027606033287536486
0.025359394812794842,0.025300248841917686,0.013738387134399429
0.016156452281914424,0.008645113939355036,-0.006130570602984691
0.0005643313816105917,-0.014450149176387905,-0.022768052871928086
-0.01108536259401505,-0.025617795329991398,-0.03726814493817426
-0.020047576353718923,-0.027027130866947746,-0.04894300416629796
-0.034878047207513356,-0.0360718538699461,-0.053771751794853676
-0.04917181129278303,-0.046786371888882614,-0.04997707631619899
-0.046788201820805425,-0.04149155179560863,-0.039862558099979524
-0.02939653469662446,-0.028061832906738488,-0.030366636616290132
-0.011874637253610284,-0.020037540191257894,-0.021563174161552328
-0.0018824200631346313,-0.012505622929194965,-0.010253010022009788
0.0032636507174262893,-0.0021800101596970395,0.0012833574003236026
0.009056926718855302,0.005929913069421407,0.013359842865239228
0.014629205815597648,0.009273071039365966,0.023612852887249017
0.01443188715069884,0.007018134180235804,0.02545479390426023
0.010820955583050648,0.0024690131432247974,0.021023056118970092
0.013322956253967537,0.00615112522965253,0.02071375775270505
0.026910319518899477,0.02374105990609509,0.032707148134146484
0.04531620458066032,0.04408187483315372,0.053901010813591305
0.05628317597573608,0.0543147212128773,0.07195110950159593
0.0578538325483306,0.05857840720442879,0.08014059161732999
0.05564386350146394,0.06256379402665727,0.08068070965991223
0.04789318634423875,0.059263451313531626,0.07257432262765236
0.032818040345969794,0.043939157310423964,0.05291771899248005
0.017462701843544533,0.022884754769716548,0.028792446423806864
0.007991405928401736,0.006889688409779023,0.014089233042401565
0.0005011894088429731,-0.0002497556647770749,0.013045928105447843
-0.00893458914661804,-0.002690225303455921,0.019379620023591667
-0.009751488419299107,0.0037106555909736843,0.03083750875597721
0.004692237851293662,0.020265888227625505,0.041866072890412775
0.01822829826335191,0.027669359719231654,0.036995777720119964
0.018409831435058813,0.014168282068996634,0.015820380614780524
0.015548710794026095,-0.002283480363676113,0.0006139803390037379
0.022971838967519264,-0.0004495601965987348,0.007238505049307225
0.03488199358081133,0.014457285052524393,0.026101088997948375
0.033015359010868606,0.024183484226557337,0.035975554750797965
0.019877882301905948,0.029121510513006932,0.03142840712734923
0.01400962520781539,0.0374526459023565,0.0222648659775566
0.011890422746802189,0.038612225774535776,0.008794229667685118
-0.0017916534772811795,0.0198270318452315,-0.01483247240014293
-0.02473192145841663,-0.011467352951335982,-0.04340794832821163
-0.0435640148363589,-0.038872685253517586,-0.06770402745735955
-0.05296032965884015,-0.06041946324764266,-0.08879171308569846
-0.057175056341078695,-0.08227308391563672,-0.10640787078222676
-0.053402323468213476,-0.09031878425952677,-0.10528147076179885
-0.03576203482626002,-0.06865783224721789,-0.07935580471785153
-0.014100391793668841,-0.0348694587409479,-0.045042151636537374
-0.0017640288641953463,-0.012227323759871938,-0.018396328202480418
0.001187858362690826,0.0011560119341110324,-0.001989665609854218
-0.0027940322949671255,0.009504987013801822,0.007838636207731932
-0.016168291401808352,0.005951320697830871,0.01191491169149359
-0.03362704687205491,-0.008291888070598887,0.01034995428606301
-0.04137377765598212,-0.01925972969238072,0.007787855878942149
-0.03294827066480301,-0.017104695099161387,0.009172773936845317
-0.014412155284208958,-0.00616896491999375,0.014255423209349943
0.00509476792768723,0.0051199911279300354,0.019314990514222852
0.021641911166101296,0.015395652764472545,0.019388852810644355
0.03355206577939336,0.022506553334482694,0.011702557589281772
0.0375694737967331,0.021807237473106884,0.0013156721550080096
0.03287723594543944,0.015752446571296937,-0.004131672206077785
0.022877126008367835,0.008891301666063866,-0.005022636156662157
0.007798033636800904,0.0011131966772921053,-0.00771860997604699
-0.009818576765364701,-0.009162464959250405,-0.01456933796914133
-0.016227487001277994,-0.01911344423158272,-0.02033059709001851
-0.008046655154573402,-0.022370971687889422,-0.02005822987196422
-0.001902151929624512,-0.020101763076486284,-0.01754691179363314
-0.0068627431651805525,-0.018539006202595444,-0.017791580650529368
-0.015600013646899785,-0.017839690341219634,-0.02008131183959594
-0.021199917356727965,-0.016633727274153187,-0.02505316766746831
-0.022332526493247126,-0.01516373679003669,-0.03236091861967069
-0.017419291737266796,-0.010279229574610754,-0.033154938306201844
-0.0043923134806474725,-0.0004352884443257591,-0.01996590200143734
0.01161023024264588,0.00865938569162801,-0.0002862163986333214
0.020604014988733564,0.010486169982568901,0.011827200214493057
0.022289116386969385,0.0072286425262621965,0.014966347812406904
0.02513839790810818,0.008541643735375961,0.01926882657895941
0.03279830847947992,0.01896359083271647,0.03029277431986863
0.04130668930991653,0.0327822149710252,0.045328368035170694
0.043145699266773425,0.04067449397798077,0.05785264367214168
0.03719456833342537,0.04072087717286794,0.06310148311159468
0.03620402863563335,0.04252625383539937,0.0657420602086634
0.04459401826713068,0.05072894345429216,0.07047847996669222
0.04505574394299389,0.05299101618955881,0.067320866794673
0.028579635423943393,0.038398149490441146,0.04937232876424794
0.010501299345914579,0.018314226104296078,0.03330266289904485
0.005584118216636275,0.01065743100984461,0.03344115470483516
0.010607851424959935,0.014978204010488006,0.03819142364344303
0.01634587820021728,0.020372926369672823,0.03336267601488732
0.01411223091356277,0.017432945401439828,0.016739042926522958
-0.0006077414878883295,0.004656159179058325,-0.006638373890882519
-0.01347291843929063,-0.002993500039256655,-0.02255108237618992
-0.00822424195298233,0.004727517940423203,-0.01939808559769704
0.005809061494620916,0.016059289245165916,-0.001560341011904236
0.012202186237342306,0.021425468099804782,0.016318951115625664
0.008685967628845541,0.020562027087289752,0.019545810190540046
-0.0009589687114082083,0.010842963789393294,0.004976472221398717
-0.009597579860678036,-0.0034573319881283653,-0.01224729202539035
-0.011128772700292788,-0.016847803558247824,-0.01937038723653898
-0.012079848665105045,-0.03119091459258841,-0.020035147904332497
-0.01758109304248382,-0.0413345625206059,-0.01877025607811427
-0.017557414802695962,-0.040606703154684134,-0.016032734716992344
-0.006906153271458291,-0.03136574355793236,-0.01022069526732538
0.003374149169769622,-0.017193893550867485,0.00012002623168494124
0.008022976914785545,-0.0021942819119700153,0.010188380512640973
0.013500543052376465,0.012723267151357845,0.018322465906058915
0.012971729030447658,0.025817599861813055,0.024268380767989848
-0.005966916426539963,0.022470873953800253,0.016771357681207365
-0.028184998094145777,4.995113295541498e-05,-0.0032222426813880377
-0.031728841315728375,-0.016533825008242357,-0.012524275636970984
-0.019151749615078335,-0.008652249815491524,-0.0009001967376370593
-0.0011286627632211834,0.014278888149112197,0.015644957660779456
0.018255922876437743,0.032346926526699446,0.01793007245631968
0.03185117888796564,0.03752757260178963,0.005692013217982021
0.02710369181050031,0.03248607611136096,-0.005336550916453541
0.007016651723801623,0.018417696308275153,-0.005295003374716446
-0.006973241617523885,-0.0008705768886515182,0.0003739278756338554
-0.00399372977755188,-0.012723267151357845,0.0016249705212730507
0.00859520104299209,-0.010025905971765435,-0.0051888263236105365
0.018038872345049056,-0.0014735584221847418,-0.017293010149684224
0.014341120564845388,0.00042815256818927124,-0.02666428900816233
-0.00522894461981842,-0.009533530518347773,-0.02711669557374403
-0.032293172697338966,-0.027262614779451848,-0.027984577556696685
-0.04874165660330363,-0.04166638076095258,-0.03950709579845104
-0.045387239300023884,-0.043803575663830696,-0.04932154843545816
-0.0314762734246579,-0.03314614465398608,-0.04328792209652669
-0.018113853437710603,-0.01526363905594752,-0.029895764476603057
-0.010059305536541248,-9.633432784258604e-05,-0.02111538398949697
-0.009345011969607561,0.005530304005778087,-0.014306203538139727
-0.013326902627265514,0.007007430366031073,-0.006001311584247062
-0.01514223434433455,0.011017792754737247,0.0005539672231612673
-0.007794087263502928,0.016969113452568116,0.0073769968550975425
0.007186345775614599,0.02396584000439446,0.017260695394999817
0.018015194105261197,0.030259682756776745,0.023077351238193124
0.016409020172984897,0.028432898465835854,0.017874675734003555
-0.0014325335071653483,0.009672680103009286,0.00046163935263438937
-0.03487410083421538,-0.022060561075952202,-0.025344000459627977
-0.06316170463410854,-0.0472073885809354,-0.046491699203809356
-0.06241189370749307,-0.05124986241225577,-0.05103884682725809
-0.04305887905421795,-0.04079223593423282,-0.041519843375936984
-0.030102935516962196,-0.030416672031779477,-0.027629115255168205
-0.02074213805416273,-0.021318429957757463,-0.014338518292824134
-0.001400962520781539,-0.009619161031985627,-0.0038177574462864
0.01815726354398834,-0.0014485828557070344,0.0014356983866929509
0.01902151929624512,-0.003803421980748026,0.003383816454810074
0.0034728085022190263,-0.012901664054770041,0.008420301792051263
-0.009704131939723392,-0.018139397138952126,0.016628249481890706
-0.01625511161436383,-0.019202642683288817,0.01619430849041438
-0.026677483494318883,-0.025960317384542814,0.0012094951039021001
-0.03714721185384965,-0.03710655590973684,-0.015409521590935917
-0.03260493618787908,-0.038362470109758705,-0.018345547873690634
-0.012498164234690518,-0.02169663139299132,-0.006084406667721252
0.007324468841043764,-0.0006422288522839069,0.00859572474605233
0.014775221627622766,0.004691838559740764,0.014070767468296188
0.011077469847419098,-0.0027794237551620193,0.014278505176981664
0.004400206227243425,-0.008309727760940105,0.015118688798776252
0.00123521484226654,-0.012327226025782768,0.010631554291169987
-0.00318077687816879,-0.02156104974639805,-0.004464052539974546
-0.016330092707025377,-0.030901911609060653,-0.022311029912820038
-0.02857568905064542,-0.031850983135213534,-0.031049862858189028
-0.02206811948228272,-0.022445898387322544,-0.027407528365903697
0.0012194293490746353,-0.0030006359153931426,-0.01312440679539569
0.019550333318173928,0.019327520515677352,0.008083305064628158
0.02375716725381652,0.03546530439834464,0.027619882468115517
0.026957675998475192,0.04830631350595453,0.04001028269282253
0.03203271205967254,0.05730822125213396,0.046256263133965816
0.026188133205369838,0.050200888620192056,0.045568420498540575
0.014222729365906102,0.030063446163023328,0.041205928616145596
0.013496596679078487,0.018574685583277885,0.04231386306246813
0.02327570971146343,0.02394800031405324,0.044857495895483615
0.031164509934117783,0.037862958780204556,0.039700984326557484
0.032439188509364086,0.05289468186171622,0.03178386942887771
0.025813227742062104,0.05635558178791283,0.022809600413665178
0.011945671972973854,0.03909389741374871,0.0057704919079298676
0.0004538329292672591,0.014621410203663613,-0.015631108480200426
0.001093145403539398,0.0015556209977543522,-0.028723200520911707
0.011416857951045049,0.002700929117660653,-0.029000184132492342
0.019132017748588453,0.004285093619960956,-0.027061298851427905
0.013784681929830749,-0.007242914278535172,-0.031119108761084188
-0.003516218608496764,-0.024379720820310754,-0.03269329895356746
-0.02314942576592819,-0.03428788483582414,-0.02722287262484994
-0.03774311422184405,-0.03880489443022095,-0.022555698769716265
-0.04208807122291581,-0.03879775855408446,-0.018844118374535774
-0.02993324146514922,-0.02912864638914342,-0.008554177204315234
-0.002904530747310458,-0.014093355369563512,0.0057427935467718036
0.023536170349129856,-0.003428788483582414,0.01312440679539569
0.03175646592881421,-0.0005137830818271254,0.012344236289443571
0.016247218867767876,-0.0045384172228062755,0.011047029708540938
-0.012865176951402301,-0.011260412543377833,0.011065495282646314
-0.037285334919278816,-0.011934752838275936,0.00848954769494642
-0.04560428983141258,-0.005751516166009211,0.00041547541737095047
-0.037719435982056196,-0.001559188935822596,-0.010585390355906549
-0.01695361968810561,0.0010989249250191295,-0.01504482650235475
0.012829659591720517,0.012141693246234084,-0.00650911487214489
0.03965315889806452,0.026156553978296228,0.005645849282718582
0.04221040879515307,0.01877805805316779,-0.0011817967427440368
0.01715883109960037,-0.014810510921280542,-0.033533482575362046
-0.00809006526085114,-0.04535206078544856,-0.06378009295996724
-0.01230084556979171,-0.05096442736679625,-0.06665148973335314
-0.004191048442450688,-0.03951134616773325,-0.05264996816795211
-0.0032478652242343845,-0.03002776678234089,-0.042544682738785325
-0.016886531342040014,-0.030748490272126165,-0.03861613184786667
-0.03421111012015538,-0.03334951712387599,-0.03354271536241473
-0.04150400797481534,-0.03165831447952837,-0.026031843095053218
-0.04131852842981046,-0.03063431625394236,-0.021724747934974364
-0.04614888934653329,-0.03295347599830091,-0.021549324980973297
-0.057348696766189644,-0.035436760893798686,-0.022186387287608755
-0.058828586752930706,-0.03105533294599514,-0.02285576434892862
-0.039321663541034516,-0.015324294003107667,-0.01792545606279334
-0.012194293490746353,0.002704497055728897,-0.006061324700089532
0.005098714300985206,0.01237360922066994,0.003526924654126735
0.01292831892416992,0.01658020820312953,0.00963902968300605
0.016906263208529896,0.019484509790680084,0.015797298647148805
0.018772897778472623,0.01772551632303583,0.017934688849846028
0.01998838075424928,0.010097264733130313,0.014121547797085972
0.022056280362388794,0.0014378790415023027,0.006767632909620148
0.027447026287424237,-0.004360020319394079,-0.0029406426762810605
0.030497572846759812,-0.010182895246768167,-0.012565823178708078
0.02163401841950534,-0.016858507372452557,-0.014994046173564967
0.00859520104299209,-0.0162448220247146,-0.0030606689079660018
0.005473619764292942,-0.004745357630764423,0.016568236366048233
0.013149315828856586,0.011670725421225886,0.02797072837611765
0.024349123248512943,0.028443602280040586,0.031128341548136877
0.031523629904233616,0.04249414239278517,0.03973791547476824
0.03251811597532361,0.04995826883155147,0.052691515709689205
0.032214245231379446,0.05267346970148509,0.055525981334864354
0.0329995735176767,0.05071467170201918,0.045166794261748654
0.02876906134224625,0.0392473187506832,0.032660984198883046
0.01758898578907977,0.024925615344752076,0.02903711528070309
0.01034344441399553,0.020583434715699216,0.034742977679264146
0.017182509339388228,0.02890029835277581,0.04331100406415841
0.03472019227559431,0.041270339635377504,0.049349246796616224
0.04675268446112364,0.043999812257584106,0.047354964793235664
0.04159477456066879,0.03353148196535643,0.037069640016541464
0.028137641614570063,0.019166963302606376,0.026562728350582765
0.018776844151770597,0.007803080555249468,0.018737941323429864
0.013445293826204798,0.0013629523420691802,0.010834675606329119
0.0108288483296466,0.00042815256818927124,0.0043578754888686354
0.0059945410396257965,-0.00216217046935582,-0.002912944315122997
-0.014005678834517414,-0.015538370287202303,-0.016282019967414914
-0.042391941966859976,-0.03078060171474036,-0.027310584101850475
-0.04984269475343898,-0.03078060171474036,-0.026645823434056956
-0.030959298522623024,-0.01957014030431794,-0.021512393832762544
-0.013528167665462297,-0.013258457861594432,-0.02044139053465076
-0.015880206151056092,-0.01323705023318497,-0.023792892234776427
-0.02779036076434816,-0.012548438186013892,-0.02744445951411445
-0.02786139548371173,-0.008816374966630744,-0.024019095517567278
-0.008977999252895778,0.0006886120471710779,-0.010806977245171056
0.013283492520987775,0.013115740338864677,0.003314570551914916
0.023042873686882834,0.019291841134994915,0.009458990335478638
0.020738191680864753,0.020066083695803847,0.012745862526235491
0.013630773371209678,0.022217550350954934,0.020727606933284085
0.004913234755980327,0.024190620102693825,0.027638348042220894
-0.006049790265797462,0.019327520515677352,0.024009862730514593
-0.013086173856088967,0.007820920245590689,0.012127265793705409
-0.005813007867918892,0.00088128070285625,0.0040578099096562825
0.00991328972451613,0.007581868395018345,0.005775108301456211
0.015899938017545974,0.01784325827928788,0.009154308362739942
0.008015084168189593,0.015795261828115865,0.006966137831252936
-0.0008050601527871379,0.006422288522839069,0.0034438295706525446
-0.0008839876187466613,0.0029578206585742155,0.003970098432655749
0.006069522132287343,0.0024226299483376267,0.008424918185577605
0.01589204527095002,6.422288522839068e-05,0.015806531434201493
0.02378873824020033,0.002832942826185678,0.026885875897426838
0.02387161207945783,0.01358314022580463,0.036972695752488245
0.017083850006938822,0.023748195782231578,0.0377667154390194
0.00722580950859436,0.021421900161736538,0.029000184132492342
-0.0012628394553523732,0.005676589466576088,0.01537720683625151
0.0035241113550927164,-0.006122581725106579,0.0038131410527600562
0.024550388286709728,0.0001177419562520496,0.003979331219708436
0.04180393234546153,0.015331429879244155,0.016175842916309004
0.040529253770215226,0.022677814361758402,0.02893093822959718
0.03565548274721466,0.024386856696447242,0.03721736460938447
0.04240772746005188,0.03377053381592877,0.044562046709797604
0.049822962886949096,0.04624047736444129,0.04782583693292274
0.04347719462380342,0.04579805304397905,0.037185049854700065
0.024581959273093538,0.0302561148187085,0.011111659217909752
0.005193427260136635,0.013229914357048482,-0.010959318231540404
0.001400962520781539,0.007481966129107515,-0.011208603481962974
0.020769762667248563,0.015088810090603567,0.0024605377495412954
0.05012288725759528,0.030220435438026064,0.01707603965394606
0.06384837358795639,0.0410348557228734,0.027869167718538087
0.05427447196706621,0.04082077943877877,0.031008315316451936
0.038504764268353454,0.033613544540926035,0.026705836549899425
0.028555957184155538,0.02225322973163737,0.023405115178563543
0.025118666041618297,0.011945456652480669,0.02799381034374937
0.027952162069565186,0.014321703405931124,0.03772055150375596
0.029767493786634222,0.028133191668103366,0.04452511556158686
0.016156452281914424,0.029528255452786742,0.03204238746635297
-0.018899181724007858,0.0009240959596751771,-0.007912498504153435
-0.05401795770269776,-0.035875617276192685,-0.05005555500614684
-0.05585302128625668,-0.0441532335945186,-0.06588055201445371
-0.0286782947563928,-0.027576593329457312,-0.06400629624275808
-0.014333227818249436,-0.022356699935616446,-0.06837802091220575
-0.029420212936412317,-0.03752757260178963,-0.07587966039251458
-0.047877400851046845,-0.05034360614292181,-0.06924128650163207
-0.050576720186862545,-0.0483205852582275,-0.05252070914921448
-0.04793265007721852,-0.04072444511093618,-0.04291861061441918
-0.05360753487970824,-0.042722490429152785,-0.04565613197554111
-0.0621908968028064,-0.05305880701285544,-0.0520913845512645
-0.05795249188078,-0.05364751679411569,-0.05027714189541135
-0.04045821905085165,-0.03891193257226827,-0.035606243268690455
-0.025781656755678294,-0.021739446649810246,-0.01619430849041438
-0.01907282214911881,-0.009462171756982895,-0.0006139803390037379
-0.01279414223203873,0.0006565006045568826,0.011407108403595762
-0.005276301099394134,0.00952282670414304,0.02004899708491153
0.0014601581202511814,0.01608069687357538,0.024485351263728014
0.005765651388343179,0.017686269004285146,0.025094715209205407
0.004400206227243425,0.011335339242810957,0.017625390483580985
-0.00223364728665451,-0.001220234819339423,0.00025390164394891416
-0.011022220621247431,-0.01737942633041617,-0.01961967248696155
-0.02259298713091355,-0.034780260289241804,-0.03514460391605606
-0.03658682684553704,-0.04794951969913014,-0.04499137130774759
-0.0462791196653665,-0.053729579369685296,-0.04982935172335599
-0.04458217914723675,-0.052056216415678896,-0.048061273002766275
-0.03260098981458111,-0.04176628302686341,-0.03892543021413171
-0.02033171523117321,-0.028397219085153417,-0.029868066115444993
-0.0137097008371692,-0.021343405524235172,-0.026798164420426304
-0.007584929478710191,-0.018610364963960322,-0.02497007258399412
-0.003985837030955928,-0.01812512538667915,-0.02530245291789088
-0.011191914673060407,-0.025653474710673835,-0.034082833404996966
-0.02112493626406642,-0.03699238189155304,-0.044017312273689026
-0.02020543128563797,-0.04037121924218003,-0.044645141793271795
-0.009625204473763868,-0.032714424147728564,-0.03640949574227429
-0.00241912683165939,-0.021853620667994053,-0.026207266049054285
-0.006152395971544843,-0.01682639592983836,-0.017800813437582056
-0.014972540292521574,-0.014503668247411564,-0.0071738755399384105
-0.020323822484577255,-0.004235142487005542,0.008748065732421678
-0.018800522391558456,0.012512758805331453,0.022938859432402807
-0.017348257017903226,0.021732310773673758,0.023659016822512455
-0.020615854108627492,0.019191938869084085,0.015797298647148805
-0.014763382507728837,0.01629120521960177,0.015432603558567636
0.006282626290378056,0.018895800009419837,0.0202244200389126
0.02267586097017105,0.018075174253723736,0.01898261018032609
0.018544008127190006,0.0035358266256297318,0.009205088691529724
-0.0007971674061911855,-0.022535096839028643,-0.009158924756266285
-0.022750842062832597,-0.04847757453323024,-0.033270348144360445
-0.035371343869760374,-0.06275646268234243,-0.05260842062621501
-0.03012661375675005,-0.054361104407764475,-0.053771751794853676
-0.007521787505942573,-0.024290522368604656,-0.03417516127552384
0.01929776542710345,0.008227665185370495,-0.008147934573996972
0.031184241800607665,0.026934364477173407,0.008623423107210393
0.022596933504211526,0.029820826374382742,0.014047685500664469
0.0020994705945233203,0.02178582984469742,0.011730255950439835
-0.02140118239492475,0.007899414883092055,0.0041085902384460655
-0.03515429333837169,-0.006033383273400481,-0.002612878735910644
-0.029451783922796126,-0.012159532936575304,-0.0031022164497030965
-0.012837552338316469,-0.006746970887049266,0.002432839388383232
0.0019218837961143928,0.005876393998397748,0.010202229693220006
0.011547088269878263,0.014949660505942054,0.0134198559810817
0.01569867297934919,0.012609093133174038,0.011425573977701137
0.014992272159011454,0.005722972661463259,0.014338518292824134
0.014708133281557172,0.007324976854104782,0.028635489043911173
0.021669535779187128,0.01896359083271647,0.04834287300787325
0.03343367458045408,0.032368334155108903,0.0621458896516415
0.03978338921689773,0.04018568646263135,0.06685922744203861
0.039451893859867734,0.04184477766436478,0.0704969455407976
0.0379996284862125,0.04123466025469506,0.0742085259359781
0.03429003758611491,0.03659634076597796,0.06714082744714558
0.02702081797124281,0.02184291685378932,0.04602082706412228
0.01649978675883835,0.0005316227721683451,0.021964800398344246
-0.0015114609731248715,-0.01556334585368001,0.0048148984479766815
-0.0249529183631033,-0.0227670128134645,-0.00563200010213955
-0.041444812375345697,-0.026352790572049645,-0.012339619895917229
-0.04185523519833522,-0.027598000957866776,-0.019088787231432
-0.03398222046887277,-0.026623953865236184,-0.031169889089873972
-0.03504774125932633,-0.03203651591476222,-0.04960314844056514
-0.043528497476677114,-0.044138961842245625,-0.06746397499398966
-0.04255768964537498,-0.04754991063548682,-0.07645670958330757
-0.030422591754098265,-0.03923304699841022,-0.07514103742829956
-0.018895235350709885,-0.031151667273837728,-0.06627294546419293
-0.014735757894643004,-0.02692722860103692,-0.05535517477438963
-0.019242516200931786,-0.023116670744152405,-0.05072954846099305
-0.031811715154985876,-0.02297752115949089,-0.05606609937744659
-0.046772416327613524,-0.032707288271592076,-0.06380317492759896
-0.05466516292356585,-0.04616198272693993,-0.06155499128026948
-0.0499887105654641,-0.04756061444969155,-0.04591926640654271
-0.034538659103887405,-0.03253959518238461,-0.023562072558459234
-0.017462701843544533,-0.012705427461016624,-0.0023358951243300104
-0.009167425171198633,0.000538758648304833,0.01262583629455055
-0.006318143650059842,0.0066791800637526315,0.0165959347272063
0.001783760730685227,0.013169259409888334,0.010723882161696865
0.012123258771382782,0.02489350390213788,0.00571509518561374
0.015327713889339428,0.03552595934550478,0.0038823869556552145
0.014716026028153124,0.03794858929384241,-0.0006462950936881451
0.018780790525068574,0.03722429786598889,-0.0022297180732241007
0.027964001189459114,0.03725284137053484,0.0036377180987589883
0.037699704115566314,0.0324325570403373,0.008009442768206655
0.04156320357428498,0.021871460358335273,0.006149036177090067
0.03801541397940441,0.01267331601840243,0.004704105003344428
0.033654671485140744,0.009405084747890992,0.01089468872217159
0.03013845287664398,0.011178349967808223,0.02399601354993556
0.02437674786159878,0.017051176028137726,0.037291226905805976
0.01942404937263869,0.02350557599359099,0.044040394241320745
0.01618013052170228,0.022681382299826646,0.04074890565703755
0.006996919857311742,0.015467011525837423,0.03222704320740672
-0.0072179167619984075,0.011909777271798228,0.028870925113754713
-0.010394747266869222,0.016687246345176848,0.035107672767845315
0.0027900859216691493,0.02689154922035448,0.043809574565003555
0.01730484691162549,0.03541178532732098,0.04339871554115895
0.02345724288317033,0.035936272223352834,0.03170539073892986
0.024270195782553423,0.028886026600502834,0.017874675734003555
0.022731110196342715,0.01877805805316779,0.011277849384858133
0.02153535908705594,0.011627910164406959,0.012468878914654856
0.02179187335142439,0.009979522776878264,0.014103082222980595
0.02259298713091355,0.009462171756982895,0.011130124792015129
0.027774575271156256,0.009408652685959236,0.009708275585901208
0.03867445832016643,0.01651598531790114,0.019462715107065855
0.04888372604203077,0.03167615416986958,0.03899467611702687
0.052277607078290274,0.043275520829730595,0.05862358139104111
0.04949541390321707,0.043621610822350255,0.07014609963279547
0.047561690987208756,0.04001442543535564,0.07184031605696367
0.05063591578633219,0.04081721150071053,0.07037230291558631
0.057269769300230124,0.04857034092300458,0.07323446690191954
0.061429246756297004,0.05999487861752163,0.07847407355431985
0.05351282192055681,0.061750304147097645,0.07477634233971839
0.03390329300291324,0.046893410030929936,0.05831889941830241
0.016444537532666684,0.029060855565846786,0.03995950236403274
0.007869068356164475,0.018171508581566322,0.022463370899189386
0.0008405775124689234,0.00746769437683454,-0.002303580369645603
-0.008267652059260068,-0.004549121037011007,-0.02891708904901815
-0.014648937682087528,-0.009751174740510652,-0.04254929913231167
-0.016215647881384066,-0.008555915487648938,-0.04274780405394445
-0.019881828675203925,-0.014061243926949317,-0.04385112210674065
-0.029420212936412317,-0.030124101110183477,-0.05032792222420113
-0.03268781002713658,-0.04180553034561409,-0.04784430250702811
-0.023555902215619734,-0.04063881459729833,-0.029835751360760585
-0.013169047695346466,-0.03334951712387599,-0.007395462429202918
-0.006353661009741628,-0.024379720820310754,0.010165298545009254
-0.0012707322019483256,-0.015249367303674544,0.01879333804574599
-0.00024862151777249846,-0.010050881538243142,0.017976236391583123
-0.002805871414861054,-0.009669112164941042,0.012584288752813455
-0.008571522803204232,-0.015449171835496205,-0.00033238033389676035
-0.019234623454335832,-0.028953817423799467,-0.024863895532888213
