channel1,channel2,channel3
-0.03932941150473852,-0.00459555414365889,0.008301509195466844
-0.03919640971528546,-0.007589187994338893,0.007388742935612143
-0.04536143383816868,-0.02632658146651276,-0.009793915342966501
-0.04340552516974126,-0.040562651400497085,-0.026476884063230528
-0.03460393616181788,-0.04196886197442425,-0.03310609887020445
-0.02861885563642998,-0.04121501713066948,-0.0343519915022689
-0.020200624727518376,-0.041374484309156065,-0.03061431360607556
-0.0069943293982964476,-0.033415622401052815,-0.015923440591625808
0.0006415380432441931,-0.019592717429511013,0.005909661843000875
-0.0004459471764014513,-0.011786074191781319,0.01927469189605584
-0.006783091262106286,-0.008618476146388677,0.015663602021302205
-0.017321527167593213,-0.0025949659044635373,0.0017522447178232583
-0.027640901302216272,0.00027544330829501235,-0.013091866427842975
-0.030762531537026433,-0.008401020902997876,-0.02597719450491591
-0.024933923705112725,-0.018621417342365443,-0.033219361836755765
-0.009982957843653542,-0.010002941195976766,-0.02460471385141176
0.011336446642205315,0.016816538822221807,-0.0021986340565843163
0.029041331908810305,0.03761250859849524,0.014517647300900684
0.04332728882300416,0.04456382787888779,0.02059387233000643
0.06438068972995689,0.054023130966387556,0.027089836588096456
0.08320435475490237,0.06854914122489295,0.032966185793876356
0.08070861529398898,0.07339114464439474,0.0321267073359078
0.06161112305546367,0.062438648885611486,0.02728304988397811
0.04721563525583787,0.04533216973886861,0.022692568474927826
0.0468322771568261,0.03836635344225001,0.020940323757104567
0.05302859581840416,0.04400569275418474,0.02230614188316452
0.05357625024556384,0.04681811390203908,0.02045395925367834
0.037874215455428524,0.034684111320832475,0.004930270308704225
0.004177820915760965,0.011800571208007371,-0.02256598045348812
-0.026850714200171596,-0.004711530273467317,-0.03900243565831694
-0.02816508482535482,-0.002471741266542085,-0.025284291650719642
-0.008034872809899833,0.00988696506616834,0.005696460964786638
0.0032076902162209656,0.01549731034565096,0.026683422414000568
0.0024018558448288692,0.012554416051762142,0.03188019382047259
0.002268854055375805,0.010814774104635749,0.0351315072132397
-0.0015256087613733861,0.009655012806551486,0.04083463070547053
-0.014880553149395797,-0.00018121270282566603,0.040388241366709474
-0.025653698095094015,-0.014786956550574349,0.03615753643964571
-0.020975164560215632,-0.02069449066269106,0.03843612082556037
-0.0048350062283525775,-0.015649529016024517,0.04355294190270205
0.011023501255256928,-0.010176905390689404,0.03946881257941058
0.018706310504839826,-0.01011891732578519,0.025137716046947353
0.017509294399762246,-0.011916547337815797,0.011746035884115606
0.01572550569415644,-0.01618591861638849,0.006389363818982908
0.017039876319339668,-0.02442747234089978,0.007162217002509516
0.00909106349085064,-0.03338662836860071,0.008767886116560486
-0.017290232628898377,-0.04553512796603336,0.001965445596037495
-0.05181593244397916,-0.06241690336127241,-0.016956132345476018
-0.07193832082476044,-0.0703612682531496,-0.03278629755288309
-0.05715947492612287,-0.05324029209018068,-0.02461803890630015
-0.011289504834163057,-0.01499716328585212,0.007162217002509516
0.028994390100768045,0.02121638324682898,0.037803180718361855
0.03330521280598207,0.03558292632684778,0.04014839037871846
0.019496497606884503,0.03234284320032487,0.013871382138813778
0.02241471334017821,0.029892847458121867,-0.011512847423568784
0.034932528818113685,0.027566076353840317,-0.018295300361759192
0.022852836881905952,0.011148205477834974,-0.019634468378042367
-0.02268854055375805,-0.019389759202346264,-0.03259308425700144
-0.08001231180802883,-0.057908331314969835,-0.06170832918813315
-0.11780046728204654,-0.09627468475721984,-0.09490104091511213
-0.1156646150161238,-0.11538175214315807,-0.11185717326058815
-0.08657634129927123,-0.10215322483688445,-0.10405535362343593
-0.06933305047841512,-0.07196318854612849,-0.07858451120427883
-0.07807987404362253,-0.05326203761451976,-0.05288048032457491
-0.08538714882886736,-0.052457453213973805,-0.04252691267629604
-0.0779703431581906,-0.05832149627741236,-0.0487164006719531
-0.06829250706681173,-0.061561579403935265,-0.05883677985968515
-0.05065021087759642,-0.054334816815247704,-0.05545887844547834
-0.018487248733975958,-0.03880126392903161,-0.03504489435646516
0.0128620554035787,-0.024137532016378714,-0.01120637116113582
0.0325150257039374,-0.012597907100440302,0.006689177553971679
0.04045601489775272,-0.006197474436637779,0.018948228051290292
0.03883652252029481,-0.004269371278572692,0.023945123634436464
0.02938557183445353,-0.002667450985593804,0.01664965608304305
0.01339406256139096,-0.006828094642471096,-0.0009527414245198705
0.0030433938880730627,-0.015127636431886601,-0.013957994995588313
0.008746823565207415,-0.007002058837183736,-0.006935691069406889
0.010006428747674672,0.02049878094363934,0.014657560377228776
-0.015905449291651764,0.039120198286004784,0.025697368352259723
-0.05223058508168577,0.030110302701512666,0.012025862036771792
-0.06930957957439399,0.007842885778294825,-0.011766023466448191
-0.06444327880734657,-0.007480460372643494,-0.023212245615575028
-0.05803572200957835,-0.018418459115200694,-0.02158658891919147
-0.059498741693562056,-0.031393288637518384,-0.01965445596037495
-0.05336501210937367,-0.035191506888744346,-0.019074816072729994
-0.027836492169059014,-0.020404550338169996,-0.015277175429538903
0.003802286451422901,0.002406504693524845,-0.010779969404707346
0.023463080386455306,0.017882069514836722,-0.008301509195466844
0.03362598182760417,0.026065635174443803,-0.0003731015368749143
0.04557267197435884,0.036264286089472283,0.018368588163645335
0.062456075600224314,0.05150789865116731,0.03906239840531469
0.08105285521963221,0.0674473679917129,0.05335351977311275
0.09469727409058187,0.07891450782652104,0.06122862721215112
0.10009558201544155,0.08392322693262246,0.06378703775072196
0.1001425238234838,0.08308239999151136,0.06241455709721781
0.09636370827608204,0.07739956963089847,0.0611153642455998
0.09173994018391962,0.07031777720447145,0.06840416926954902
0.09182600016533042,0.0666355350830539,0.08585332864589547
0.09165388020250881,0.06239515783693333,0.09702638716981031
0.08117020973973785,0.051246952359098354,0.08961765665186558
0.06036716514234383,0.03618455250022899,0.0700031758561558
0.031192831444080464,0.015852487243189266,0.04130767015400837
-0.001791612340279515,-0.013032817587221902,0.004037491631182108
-0.024229796584478856,-0.03834460791791093,-0.02445147572019528
-0.03455699435377562,-0.048412785686904936,-0.029208520315350435
-0.04073766574600626,-0.041062798460295924,-0.015683589603634793
-0.03128671506016498,-0.016330888778649022,0.0014124558181693185
-0.005367013386164836,0.009227350827882914,0.006982328761516254
0.005883373274629674,0.013627195252490086,-0.0004330642838726684
-0.005562604253007577,0.007908122351312066,-0.004610468991382869
-0.014943142226785474,0.014185330377193137,0.0004996895583146174
-0.01744670532237257,0.02663101880725988,0.003078087679218043
-0.027437486800699823,0.029646398182278964,-0.0042440299819521505
-0.04709045710105852,0.012438439921953716,-0.025284291650719642
-0.06677472194011205,-0.027305130061771356,-0.0609887762241601
-0.07658555982094398,-0.06759233815397343,-0.08866491522734571
-0.07240773890518303,-0.08063240424930836,-0.07672566604734846
-0.05664311503765803,-0.06272858921013255,-0.025564117803375825
-0.03658331573426643,-0.03271976562220226,0.028082553177281498
-0.02125681540846918,-0.015134884939999626,0.0497557549532475
-0.008081814617942091,-0.015113139415660547,0.04555836266340472
0.017313703532919507,-0.014946423729060933,0.04276010113684286
0.0571047094834069,-0.0030371248993581626,0.04670431738380624
0.0930151926357343,0.014917429696608827,0.04692418078946467
0.10675349512276848,0.028624358538342207,0.04166744663599489
0.09639500281477688,0.03273426263842831,0.034498567106041184
0.06237001561881351,0.025811937390487868,0.02486455242173536
0.009638717918010317,0.01163385552140776,0.01640314256760784
-0.02865797380979853,0.003935939905373467,0.01678290663192695
-0.02721060139516224,0.013460479565890473,0.026150420218464976
-0.006595324029937254,0.03768499367962551,0.04144092070289227
0.008926767162702737,0.06551201632553479,0.054326248779965204
0.023314431327654823,0.07932042428085054,0.04791023485120552
0.042169390891295136,0.06955668385260365,0.020780423098443888
0.05589986974365561,0.04947106787140683,-0.005716448547119223
0.05827043104978964,0.038569311669414755,-0.022506017706490366
0.054796737254662546,0.044571076387000814,-0.043406366298929765
0.04435218496526013,0.06182252569600422,-0.06809769300711606
0.026193528887579982,0.07295623415761314,-0.07163549507998355
0.0178770052294266,0.06661378955871483,-0.045311849147969506
0.0293621009304324,0.05427682875034349,-0.012019199509327597
0.045048488451220295,0.053320025679423975,0.011619447862675903
0.05201934694549561,0.06364914974048694,0.028542267570930945
0.051776814270610615,0.06915076739827415,0.03766326764203376
0.04723128252518529,0.05877815228853303,0.035737797210661434
0.042427570835527555,0.04259948218025757,0.031300553932827636
0.034979470626155945,0.03135704609695325,0.029301795699569165
0.009724777899421123,0.013888141544559045,0.017662360254560677
-0.03616866309655981,-0.02012910702987498,-0.01219908775032086
-0.07766522140591592,-0.057625639498561795,-0.04473220926032455
-0.09468945045590817,-0.08111080578476812,-0.06196816775845675
-0.09601164471576511,-0.09059185439660696,-0.06971002464861123
-0.09604293925445993,-0.09397690768539041,-0.07529988517429075
-0.09490068859209833,-0.0907658185913196,-0.0706494410182427
-0.08555144515701527,-0.07723285394429887,-0.05449947449351427
-0.06984158673220625,-0.06035832705717284,-0.041174419605124475
-0.055070564468242385,-0.05073955679118649,-0.03896246049365177
-0.03673978842774062,-0.04310687774816944,-0.037263515995382065
-0.011383388450247573,-0.02766755546742269,-0.02575066857181328
0.004623768092162416,-0.013525716138907712,-0.012685452253747087
0.0017759650709320957,-0.009655012806551486,-0.008714585897006927
-0.0020263213804908053,-0.004863748943840876,-0.008614647985344004
0.004271704531845481,0.0036242540565133204,-0.008521372601125276
0.008856354450639349,0.0004204134705555452,-0.015636951911525428
0.004655062630857255,-0.015366837199616479,-0.025057765717617014
-0.0036145192192538686,-0.026964450180459107,-0.022406079794827442
-0.01718070174346644,-0.03229210364353369,-0.01513726235321081
-0.04623768092162416,-0.04928985516858116,-0.025484167474045485
-0.08731176295859995,-0.08169068643381025,-0.0531536439497869
-0.11264469203207186,-0.10543679901208552,-0.07197528397963748
-0.10706644050971686,-0.10382038170288058,-0.06549264477643585
-0.09192770741608865,-0.09078756411565868,-0.04735724507333734
-0.09252230365129059,-0.08811286462195185,-0.04160748388899714
-0.10856857836706912,-0.10082674785220058,-0.054639387569842365
-0.11576632226688202,-0.11380882588263129,-0.07198860903452588
-0.09350025798550429,-0.10871312467917356,-0.07610605099503832
-0.04895248215340142,-0.08451760459789064,-0.05959630798832337
-0.0016820814548475795,-0.051544141191732444,-0.028362379329937685
0.03560536140005272,-0.017787838909367377,0.0034445266886487624
0.05774624752665109,0.011757080159329213,0.02627700823990468
0.06668083832402753,0.033886775428399546,0.038596021484221046
0.06957558315330012,0.04719503632391646,0.04240698718230053
0.07385511131981931,0.053725942133753465,0.04398600618657472
0.08138927151060173,0.05774161562837023,0.04954255407503327
0.08665457764600833,0.062264684690898846,0.05934979447288816
0.08422925089715834,0.06993360627448103,0.06942353596851085
0.07340134050874415,0.07880578020482565,0.0740340049598937
0.056893471347216736,0.08240104022888686,0.07243499837328694
0.041199260191755134,0.07953063101612831,0.06800441762289733
0.03079382607572127,0.07409424993135832,0.06054238688539904
0.022884131420600792,0.06813597626245042,0.051488012088738176
0.01266646453673596,0.05598022815690475,0.04068139257425405
-0.0010170725075822574,0.028718589143811552,0.01964113090548656
-0.011993631954796928,-0.003131355504827509,-0.008001695460478074
-0.011837159261322734,-0.01318503625759546,-0.021513301117305327
-0.0033563392750214495,-0.0003189343569731722,-0.015576989164527672
0.00575037148517661,0.010952495758783255,-0.006675852499083288
0.014872729514722087,0.011162702494061028,-0.003744340423637533
0.021405464467269663,0.008422766427336957,0.000459714393649448
0.02338484403971821,0.007284750653591774,0.011639435445008488
0.027108894144404014,0.006045255766264219,0.023472084185898627
0.03136495140690208,0.003044373407471189,0.028855406360808106
0.02793819941981724,-0.0005073955679118649,0.03202010689680068
0.022758953265821436,-0.0014859441631704614,0.037829830828138636
0.03253849660795853,0.006907828231714389,0.04377280530836048
0.058317372857831895,0.026920959131780945,0.04994230572168496
0.08031743356030349,0.047253024388820675,0.05867021667358028
0.08351730014185076,0.054740733269577194,0.06338728610407027
0.0683472725095277,0.045658352603954816,0.049935643194240764
0.04105843476762836,0.024695667141081765,0.015623626856637037
0.013941716988550637,0.005240671365718262,-0.01621659179917038
-0.0034032810830637076,-0.0008770694816762236,-0.02074044793377872
-0.023791673042751114,-0.004849251927614823,-0.008428097216906547
-0.0596943325604048,-0.023535905842997504,-0.0024451475720195276
-0.08727264478523139,-0.0443753666679491,0.004737057012822573
-0.07703933063201915,-0.04433187561927094,0.028069228122393108
-0.03612172128851756,-0.02196297958247072,0.05483926339316821
0.007823634673709673,0.008314038805641558,0.0702563518990352
0.03426751987084836,0.03218337602183829,0.08063656965709086
0.041950329120431264,0.04636870639903142,0.09231598026676452
0.0473173425065961,0.05449428399373429,0.09446797663123947
0.0596943325604048,0.05711824393064993,0.07211519705596559
0.06966164313471092,0.05785759175817865,0.03323268689164415
0.06803432712257931,0.06211246602052529,0.005123483604585877
0.059131030863897704,0.07072369365880093,-0.0008261534030801674
0.052864299490256256,0.07907397500500762,0.004770369650043548
0.04543967018490578,0.07304321625496946,0.006429338983648077
0.020161506554149826,0.039228925907700184,-0.010660043910711839
-0.024394092912626758,-0.01890410915877348,-0.05000893099612691
-0.07105425010663124,-0.08095858711439456,-0.09407488751203197
-0.10291209049797703,-0.11862183526968098,-0.1174203836764909
-0.10955435633595655,-0.11414950576394355,-0.10947865096301057
-0.0919668255894572,-0.08138624909306312,-0.08261534030801675
-0.06125123586047303,-0.048992666335947066,-0.05778410052350236
-0.029714164490749335,-0.026058386666330775,-0.046111352441272895
-0.008332170927500802,-0.010880010677652988,-0.04674429254847141
-0.0039744064142445135,-0.007002058837183736,-0.05487923855783338
-0.01362877160160225,-0.011256933099530374,-0.06436667763836691
-0.02819637936404966,-0.01530160062659924,-0.06956344904483894
-0.041887740043041584,-0.022318156480009028,-0.07242167331839855
-0.04850653497699997,-0.03806916460961592,-0.07683226648645557
-0.042091154544558036,-0.05268215696547763,-0.07687224165112073
-0.02987846081889724,-0.053791178706770706,-0.06743144026269657
-0.025661521729767725,-0.04523069062528624,-0.05481261328339143
-0.030379173438014658,-0.037366059322652335,-0.04310655256394099
-0.03388416177183659,-0.03435067994763325,-0.030321162398530985
-0.029964520800308047,-0.03443041353687654,-0.017702335419225845
-0.019864208436548857,-0.0323500917084379,-0.007228842276951465
-0.008191345503374027,-0.025203062708993633,0.0018122074648210123
0.0017524941669109667,-0.015004411793965148,0.01054011841671633
0.009959486939632414,-0.005530611690239327,0.01770899794667004
0.013073293539768863,-0.0006523657301723977,0.020000907387473087
0.007056918475686125,-0.0004349104867815985,0.019334654643053596
0.0027539194051458046,0.003501029418591868,0.024105024293097143
0.01505267311221741,0.02095543695476002,0.037609967422480205
0.03738132647098481,0.048064857297479655,0.05186111362561309
0.05338848301339481,0.067476362024165,0.05356005812388279
0.05927185628802448,0.06467843789253672,0.037036990062279444
0.0596160962136677,0.04320110835363878,0.01418452092869094
0.05400655015261787,0.020708987678917115,0.00028648868010038063
0.03717791196946836,0.006458420728706738,-0.004777032177487742
0.012157928282944831,-0.003051621915584216,-0.007068941618290787
-0.013714831583013056,-0.007031052869635842,-0.00560318558056791
-0.04037777855101562,-0.0039721824459386,0.00012658802143970308
-0.061556357612747706,-0.0026384569531416975,0.004204054817286981
-0.061689359402200765,-0.006443923712480684,0.004463893387610582
-0.04130096744251336,-0.007639927551130079,0.0068823908498533305
-0.016875579991191762,-0.003450289861800681,0.015430413560755385
0.0034189283524111267,0.004552063094980731,0.026883298237326415
0.01887060683298773,0.01508414538320844,0.03429202875527114
0.027992964862533207,0.021448335506445832,0.03291954810176699
0.034353579852259175,0.016903520919578127,0.023931798579548077
0.04209897817923175,0.005501617657787221,0.013398342690275941
0.04758334608550223,-0.001413459082040195,0.010580093581381499
0.04617509184423449,0.000826329924885037,0.016816219269147923
0.04083154936209078,0.009046138125057248,0.02165321419363342
0.031654425889829335,0.01549731034565096,0.017988824099326225
0.014192073298109346,0.012220984678562917,0.010426855450165017
0.0004928889844437094,0.008299541789415504,0.011213033688580015
0.003911817336854836,0.014533258766618415,0.0223327919929413
0.021045577272279018,0.02413028350826569,0.03223997030245911
0.04732516614126981,0.031088851296771264,0.03675050138217906
0.06970858494275319,0.0357786360458995,0.03786314346535961
0.07133590095488479,0.0387722698965795,0.036304112043418005
0.05607981334115093,0.04005525583258522,0.03613088632986893
0.03566012684276869,0.03663396000323665,0.042553562786072814
0.010147254171801446,0.021354104900976487,0.05162792516506627
-0.023267489519612567,-0.010285633012384804,0.048656437924955345
-0.054577675483798674,-0.04615849966375365,0.02759618867385527
-0.0685976288190864,-0.06569322902836044,-0.0013991307632809286
-0.06545252768025513,-0.06385210796765169,-0.02623703307523951
-0.05835649103120045,-0.04992047537441448,-0.04240032465485633
-0.04996955466098368,-0.031023614723754023,-0.0511948608811936
-0.028744033791209336,-0.009662261314664513,-0.05242076593092546
0.006157200488209513,0.013061811619674008,-0.05017549418223178
0.03679455387045659,0.033821538855382305,-0.05281385505013296
0.041692149176198845,0.04141797535783423,-0.0531536439497869
0.014035600604635153,0.027174656915736877,-0.04091458103480087
-0.020889104578804826,0.007908122351312066,-0.024977815388286674
-0.022891955055274502,0.012061517500076332,-0.012285700607095393
0.005218364327364351,0.032922723849367,0.0009527414245198705
0.020732631885330633,0.04001176478390706,0.012418951155979291
0.015357794864492087,0.03127731250770996,0.019254704313723257
0.014184249663435636,0.02410853798392661,0.024218287259648457
0.018056948826921923,0.0226370908369822,0.028788781086366157
0.013566182524212572,0.024268005162413196,0.03346587535219098
0.006470145875157899,0.028153205510995476,0.038389483133451
0.0097873669768108,0.032792250703332526,0.042506925093963456
0.01673475456706499,0.032509558886924486,0.04125436993445481
0.012783819056841604,0.02049878094363934,0.02619705791057434
0.004952360748458223,0.0016454113416570475,-0.001192592412510887
-0.0001486490588004838,-0.0190998188778252,-0.0292551580074598
-0.01484143497602725,-0.04797062669201031,-0.05393315966075771
-0.04585432282261239,-0.0822778155909654,-0.07418724309111019
-0.08673281399274543,-0.10895957395501647,-0.08624641776510296
-0.1235195442285283,-0.12316664985654868,-0.09574718190052489
-0.13686666498187702,-0.12373928199747779,-0.10655380141500902
-0.1188253634243025,-0.10592969756377134,-0.10841264657193939
-0.08561403423440495,-0.07644276655997896,-0.09564058146141777
-0.05894326363172867,-0.05064532618571714,-0.07146226936643449
-0.04082372572741707,-0.03135704609695325,-0.03972198862228998
-0.021647997142154665,-0.014381040096244855,-0.01059341863626989
0.0,-0.002145558401455886,0.007948395240924513
0.02031015561295031,0.006567148350402137,0.02377856044833159
0.04021348222286772,0.022035464663600988,0.04425250728434252
0.05837213830054787,0.04423764501380159,0.0596895833725421
0.06276119735249899,0.057219723044232305,0.05946971996688367
0.04730951887192239,0.05192106361360983,0.0474038827654467
0.0183620705791966,0.03440141950442444,0.02802925295772794
-0.021069048176300148,0.009901462082394391,-0.0016256566963835553
-0.059803863445836734,-0.01985366372157997,-0.03494495644480224
-0.07337004597004931,-0.04638320341525748,-0.053080356147900756
-0.05944397625084609,-0.059459512051157536,-0.04705076881090437
-0.043037814340076905,-0.05742992977951008,-0.025777318681590063
-0.03709967562273127,-0.046107760106962464,-0.004390605585724438
-0.03279667655219095,-0.03142953117808352,0.008421434689462352
-0.026819419661476756,-0.017186212735986167,0.012152450058211495
-0.030465233419425464,-0.012039771975737251,0.0012259050497318614
-0.04590908826532836,-0.02063650259778685,-0.025484167474045485
-0.049155896654917874,-0.02442747234089978,-0.04027497840015816
-0.022790247804516276,-0.004030170510842812,-0.01754243476056517
0.01147727206633209,0.02776903458100506,0.023565359570117357
0.026928950546908692,0.04630346982601418,0.048276673860636235
0.029221275506305627,0.04855050734105244,0.05278054241291199
0.03846881169063046,0.049666777590458545,0.053340194718224355
0.05745677304372383,0.05649487223292964,0.054672700207063336
0.07188355538204447,0.06031483600849468,0.0532868944986708
0.07409764399470431,0.056168689367843444,0.047923559906093906
0.07123419370412656,0.048180833427288086,0.03693705215061652
0.07305710058310091,0.043715752429663676,0.02596386945002752
0.07235297346246705,0.04431737860304488,0.020653835077004187
0.04443824494667094,0.03308943953596662,0.007382080408167947
-0.018479425099302248,-0.007864631302633906,-0.030747564154959457
-0.08771076832695913,-0.06778804787302514,-0.08354143162275983
-0.12484173848838524,-0.11148930328646277,-0.11837312510101076
-0.11855153621072266,-0.11238811829247806,-0.11724049543549762
-0.08386154006749398,-0.07584838889471077,-0.0882851511630266
-0.03626254671264433,-0.026681758364051067,-0.0457182633220654
0.010374139577339027,0.016323640270535997,-0.005776411294116977
0.04040907308971046,0.04727476991315975,0.01986099431114499
0.05115874713138755,0.0639100960325559,0.03598431072609665
0.05183157971332658,0.0629025534048452,0.05066185868565801
0.048741244017211256,0.04931160069292024,0.06453324082447179
0.04547096472360062,0.03779372130132091,0.07397404221289595
0.04494678120046207,0.034908815072336306,0.07482018319830872
0.046980926215626585,0.0346623657964934,0.07004981354826516
0.04982090560218319,0.032226867070516446,0.06587907136819916
0.04838135682222061,0.024050549919022394,0.05985614655864697
0.04040907308971046,0.011336666688773667,0.050028918578459494
0.03218643304764159,0.005088452695344702,0.0419272852063185
0.021069048176300148,0.00028994032452106565,0.03094077745084111
0.0006258907738967737,-0.018679405407269655,0.010893232371258658
-0.016805167279128376,-0.04149770894707752,-0.0031846881183251615
-0.02271983509245289,-0.051703608370219034,0.0009727290068524552
-0.0265299451785495,-0.050964260542690314,0.009500764135421925
-0.03264020385871675,-0.04607151756639733,0.005849699096003121
-0.03915729154191691,-0.04408542634342803,-0.00591632437044507
-0.04151220557870352,-0.040540905876158,-0.012692114781191281
-0.031153713270711914,-0.02034656227326578,-0.012312350716872172
-0.01169633383719596,0.008640221670727756,-0.01509728718854564
0.0036614610272961267,0.025123329119750338,-0.02853560504348675
0.01096873581254096,0.03403174559066008,-0.04211383597475595
0.01315935352117967,0.04863748943840876,-0.03851607115489071
0.01171980474121709,0.056277416989538843,-0.019181416511837114
0.005312247943448868,0.04135273878481699,-0.0030047998773318992
0.0006024198698756448,0.0211946377224899,0.004004178993961134
0.013644418870949668,0.027725543532326903,0.015963415756290976
0.04208333090988433,0.06220669662599464,0.03628412446108542
0.06421639340180899,0.09540486378365665,0.05361335834343635
0.07272850792680512,0.10795203132730577,0.06408018895826653
0.07920647743663672,0.10537881094718131,0.06714495158259619
0.08639639770177591,0.09754317367699951,0.060535724357954845
0.0833921219870714,0.0842059187490305,0.0487164006719531
0.07027188663926028,0.06475817148178001,0.038502746100002316
0.05558692435670722,0.04336057553212537,0.030487725584635857
0.03637990123274998,0.016707811200526407,0.01585681531718386
0.007596749268172092,-0.020187095094779197,-0.011659423027341072
-0.02049009921044563,-0.05284162414396421,-0.03916899884442181
-0.030950298769195465,-0.062010986906942914,-0.04952256649270068
-0.023987263909593857,-0.052863369668303295,-0.043472991573371714
-0.015373442133839507,-0.041468714914625414,-0.03291954810176699
-0.00933359616573564,-0.028428648819290487,-0.019727743762261093
0.0015256087613733861,-0.006799100610018989,0.003997516466516939
0.012251811899029347,0.012750125770813862,0.030087973937984163
0.01598368563838886,0.012808113835718076,0.03988188928095066
0.019488673972210793,-0.0006016261733812113,0.03378567666951233
0.018229068789743536,-0.017374673946924858,0.01942126749982813
-0.0015334323960470959,-0.039874043129759555,-0.003870928445077236
-0.03265585112806417,-0.05997415612718243,-0.030960765033173694
-0.06534299679482318,-0.07063671156144462,-0.05349343284944084
-0.10454723014478236,-0.08405370007865694,-0.07351432781924651
-0.1359669469944004,-0.10060204410069676,-0.09144985169901917
-0.12689153077289717,-0.09828977001264125,-0.09252918114497875
-0.08569227058114204,-0.07447842086134873,-0.07193530881497232
-0.054976680852157865,-0.051268697883437436,-0.048749713309174075
-0.041887740043041584,-0.03407523663933824,-0.03190684393024937
-0.02120204996575321,-0.012293469759693183,-0.015317150594204071
0.011179973948731122,0.008922913487135795,-0.004317317783838294
0.036098250384496426,0.01685278136278694,-0.0075153309570518455
0.04371064692201594,0.016794793297882728,-0.017875561132774914
0.03605913221112788,0.020034876424405636,-0.021320087821423677
0.01642963281479031,0.018527186736896094,-0.018122074648210123
0.0013143706251832249,0.0022542860231512855,-0.01846852607530826
0.008206992772721446,-0.013946129609463257,-0.01563028938408123
0.024002911178941277,-0.013888141544559045,0.005656485800121469
0.027085423240382885,-0.006806349118132016,0.03567783446366368
0.02174188075823918,-0.0030371248993581626,0.05084174692665127
0.024417563816647888,0.007407975291513227,0.049202765175379325
0.03965800416103433,0.031110596821110344,0.048723063199397294
0.05747242031307125,0.05800981042855221,0.061102039190711416
0.06718937457781866,0.07698640466845595,0.07513332198818587
0.06513175865863302,0.08037870646535242,0.06873729564175877
0.04781805512571352,0.06256912203164597,0.03648400028441127
0.014653667743858217,0.027167408407623852,-0.0039042410822982105
-0.018534190542018214,-0.00837202687054577,-0.02698323614898934
-0.03190478219938805,-0.02574670081747063,-0.02247270506926939
-0.02914303915956853,-0.02700069272102424,-0.0065759145874203645
-0.028321557518829015,-0.02773279204043993,-0.0017855573550442328
-0.036129544923191266,-0.033792544822930204,-0.008401447107129766
-0.04605773732412884,-0.040511911843705894,-0.011526172478457174
-0.05021991097054239,-0.04362877033230735,-0.00826819655824587
-0.045095430259262555,-0.038620051226205945,-0.0060095997546637985
-0.03416581262009014,-0.025898919487844188,-0.00814827106425036
-0.02502780732119724,-0.01448251920982723,-0.012685452253747087
-0.014434605972994346,-0.003877951840469253,-0.012019199509327597
0.004443824494667094,0.011626607013294732,-0.004717069430489988
0.020169330188823536,0.020491532435526316,-0.0027849364716734677
0.01903490316113563,0.01145989132669512,-0.009940490946738788
0.008551232698364672,-0.0032255861102968553,-0.013431655327496916
0.0002972981176009676,-0.005008719106101409,-0.0070556165634023974
-0.011093913967320316,0.004008424986503733,-0.0009394163696314807
-0.02938557183445353,0.006987561820957682,-0.0012192425222876664
-0.0396345332570132,-0.00037692242187738537,-0.0005196771406472021
-0.03426751987084836,-0.00945205457938674,0.0028115865814502474
-0.02671771241071853,-0.015504558853763985,0.0016989444982696991
-0.02527816363075595,-0.023035758783198666,-0.0066425398618623135
-0.022195651569314342,-0.03828661985300672,-0.021513301117305327
-0.012353519149787573,-0.04963778355800644,-0.03534470809145394
-0.0038101100860966105,-0.038728778847901345,-0.03658393819607419
-0.0013534887985517732,-0.015163878972451734,-0.029661572181555688
0.007940989193815317,0.0011162702494061027,-0.02200632814817575
0.031059829654627398,0.01122069055896524,-0.005003558110590368
0.044375655869281265,0.019752184607997596,0.017142683113913475
0.02963592814401224,0.022586351280191014,0.024937840223621506
0.006595324029937254,0.020288574208361568,0.017935523879772666
-0.001838554148321773,0.017809584433706456,0.011372934347240692
0.006986505763622738,0.019541977872719826,0.017702335419225845
0.024480152894037564,0.028319921197595087,0.03715025302883075
0.032131667604925626,0.03509002777516197,0.04994896824912915
0.026811596026803046,0.02824743611646482,0.04064807993703307
0.031145889636038208,0.0211946377224899,0.02720309955464777
0.0448920157577461,0.030523467663955185,0.02865553053748226
0.03644249031013965,0.035872866651368844,0.02439817550064172
-0.002190617708638708,0.011807819716120398,-0.008927786775221163
-0.0395562969102761,-0.023093746848102878,-0.04904952704416284
-0.04611250276684481,-0.031067105772432185,-0.05946971996688367
-0.028290262980134175,-0.006871585691149256,-0.039302249393305705
-0.012376990053808701,0.01938251069423324,-0.012985265988735858
-0.005586075157028706,0.02755882784572729,0.005416634812130452
0.004670709900204674,0.03203115735146473,0.016183279161949407
0.026365648850401595,0.047209533340142516,0.02385851077766193
0.05282518131688771,0.06210521751241226,0.03221332019268233
0.06718937457781866,0.0626053645722111,0.03689707698595135
0.06552294039231851,0.05328378313885884,0.03413879062405466
0.06522564227471754,0.0459265474041368,0.030174586794758696
0.07586578543096269,0.04236028141252769,0.030041336245874798
0.08647463404851301,0.04031620212465418,0.030267862178977423
0.08949455703256494,0.042034098547441494,0.03053436327674522
0.08754647199881123,0.04762994681069806,0.038349507968785834
0.07272850792680512,0.04536116377132072,0.0508084342894303
0.03397804538792111,0.021201886230602925,0.04896291418738831
-0.008293052754132254,-0.013547461663246793,0.027562876036634296
-0.015342147595144668,-0.027827022645909274,0.010646718855823448
0.009059768952155801,-0.018918606174999533,0.010187004462174
0.02200788433714531,-0.01797630012030607,0.003477839325869737
0.005539133348986448,-0.040403184222010495,-0.022812493968923334
-0.02817290846002853,-0.06881008751696191,-0.04833663660763399
-0.06587500395263544,-0.08460458669524695,-0.054426186691628124
-0.09583952475294348,-0.09001197374756482,-0.0497624174806917
-0.11253516114663993,-0.09170087613790004,-0.04807013550986619
-0.11672862933174831,-0.08669940553991165,-0.048156748366640724
-0.1116197958898159,-0.08319112761320677,-0.05068850879543479
-0.10789574578513009,-0.09728947589304358,-0.06350054907062158
-0.11028195436061154,-0.12041221677359856,-0.08315500503099653
-0.10508706093726831,-0.12840007271415393,-0.09904513298540137
-0.07814246312101221,-0.10909004710105095,-0.10090397814233174
-0.035222003301040944,-0.0678822784784945,-0.0799436668028946
0.003958759144897094,-0.02257910277207799,-0.043946031021909554
0.021029930002931598,0.008734452276197102,-0.014351084114795812
0.006603147664610964,0.01726594632522946,-0.0037776530608585076
-0.023603905810582082,0.00929983590901318,-0.006276100852431595
-0.036864966582519976,0.0016889023903352075,-0.008534697656013664
-0.024261091123173695,0.006472917744932791,-0.0038975785548540157
-0.0038101100860966105,0.023840343183744624,0.012219075332653444
0.009028474413460962,0.040497414827479844,0.03830287027667647
0.012337871880440153,0.04130924773613883,0.055885280201906806
0.01576462386752499,0.0363222741543765,0.057510936898290364
0.032311611202420945,0.050638077677604115,0.05879680469501998
0.05996033613931093,0.07650075462488318,0.06076891281850167
0.07866664664415075,0.08348831644584086,0.0522408776899322
0.07108554464532608,0.06909277933336995,0.04123438235212223
0.03992400773994046,0.048456276735583094,0.034711767984255425
0.004905418940415965,0.02807347192175218,0.021293437711646896
-0.016382691006748055,0.01070604648294035,8.661285677453369e-05
-0.02455056560610095,-0.004088158575747025,-0.015810177625074494
-0.035237650570388364,-0.020766975743821327,-0.02898199438224781
-0.0599368652352898,-0.04466530699247016,-0.0548525884480566
-0.09234236005379526,-0.07692116809543871,-0.09019063401206634
-0.1146944843165838,-0.10557452066623303,-0.11342952973741814
-0.11368523544367524,-0.11221415409776543,-0.11621446620909162
-0.09306995807845027,-0.09364347631219118,-0.10885237338325625
-0.06945040499852076,-0.06820121283546766,-0.09841885540564704
-0.05277041587417174,-0.05463925415599482,-0.08047000647098598
-0.038977347944421585,-0.05160212925663666,-0.050282094621338896
-0.019285259470694344,-0.04294741056968285,-0.01451098477345649
0.006712678550042899,-0.019672451018754304,0.01702942014736216
0.030879886057132076,0.009698503855229646,0.04102118147390799
0.05244182321787593,0.03579313306212555,0.05469935031684012
0.0738472876851456,0.05924930531587976,0.05942974480221849
0.08584091963994253,0.07792146221503639,0.06232794424044327
0.08085726435278946,0.08318387910509373,0.06120863962981853
0.06413033342039819,0.06980313312844655,0.04807013550986619
0.04198944729379981,0.04433187561927094,0.029421721193564673
0.019496497606884503,0.02199197361492283,0.01965445596037495
0.00742462930535048,0.011191696526513134,0.02320558308813083
0.010710555868308541,0.009560782201082139,0.0351315072132397
0.0174701762263937,0.009096877681848435,0.04485879728176425
0.021076871810973858,0.003551768975383054,0.04374615519858371
0.029463808181190626,0.001210500854875449,0.03399221502028237
0.03652855029155046,0.012706634722135702,0.02146000089775177
0.02194529525975563,0.027674803975535716,0.005896336788112485
-0.012775995422167894,0.024739158189759927,-0.013918019830923143
-0.03648943211818191,0.0033270652238792282,-0.029954723389100265
-0.029041331908810305,-0.012532670527423063,-0.029015307019468785
-0.004999302556500481,-0.008828682881666449,-0.008941111830109554
0.016507869161527407,0.0029356457857757897,0.012965278406403272
0.029455984546516916,0.008966404535813955,0.01637649245783106
0.034611759796491594,0.010075426277107032,0.004710406903045793
0.03828104445846143,0.014504264734166309,-0.0045704938267177005
0.03745956281772191,0.02799373833250889,-0.0069490161242952795
0.015091791285585958,0.041874631368954904,-0.008088308317252607
-0.027844315803732724,0.03163973791336129,-0.013278417196280434
-0.06298025912336286,-0.005240671365718262,-0.021280112656758506
-0.07390205312786156,-0.03424195232593785,-0.022879119243365283
-0.06567158945111899,-0.03174846553505669,-0.012865340494740349
-0.03916511517659062,-0.0069223252479404425,0.006449326565980662
0.0025661521729767726,0.023702621529597116,0.033439225242414196
0.04067507666861659,0.047818408021636755,0.062148055999450016
0.06125123586047303,0.05903185007248896,0.07698550461767205
0.07808769767829624,0.06467843789253672,0.0734010648526952
0.11953731417961008,0.08013950569762254,0.06759134092135724
0.18108584815768408,0.10495839747662576,0.06997652574637903
0.21360869749629519,0.1192814495079664,0.0744470816614338
0.18017830653553377,0.10897407097124252,0.07278811232782927
0.09794408248017139,0.07902323544821645,0.06194151764867997
0.017689237997257568,0.045716340668859025,0.04717735683234408
-0.022852836881905952,0.021890494501340455,0.03835617049623003
-0.027985141227859497,0.006190225928524752,0.0368304517115094
-0.029526397258580302,-0.009531788168630033,0.03423206600827339
-0.040878491170133036,-0.021259874295507138,0.0287288183393684
-0.044790308506987876,-0.021267122803620166,0.023905148469771296
-0.038656578922799494,-0.020665496630238953,0.012738752473300646
-0.04978961106348836,-0.036597717462671514,-0.011352946764908107
-0.08303223479208076,-0.06306202058333178,-0.040228340708048795
-0.10162119077681493,-0.07360135137967251,-0.0596829208450979
-0.08555926879168897,-0.05685004913046795,-0.06317408522585603
-0.06053146147049174,-0.03530748301855277,-0.06204145556034289
-0.05012602735445787,-0.034169467244807586,-0.07070274123779627
-0.043835825076795294,-0.044621815943792005,-0.07947728988180094
-0.026928950546908692,-0.04272995532629205,-0.07030298959114457
-0.0077923401350148335,-0.02924048172794947,-0.047963535070759074
-0.00012517815477935477,-0.022238422890765736,-0.029408396138676282
-0.0035441065071904814,-0.025021850006167964,-0.019527867938935246
-0.012455226400545798,-0.024847885811455327,-0.012252387969874419
-0.022164357030619503,-0.017403667979376966,-0.0037576654785259228
-0.031145889636038208,-0.011604861488955653,0.004650444156048039
-0.03772556639662804,-0.007995104448668385,0.014244483675688693
-0.029268217314347884,0.004189637689329399,0.030201236904535474
-0.00167425782017387,0.025036347022394018,0.049842367810022034
0.027116717779077724,0.041896376893293986,0.061714991715577344
0.04352287968984691,0.044353621143610016,0.06110870171815561
0.05038420729869029,0.03165423492958734,0.05018881923712017
0.05777754206534593,0.01860692032613939,0.03707696522694461
0.07219650076899285,0.024441969357125833,0.035950998088875676
0.08131103516386462,0.04386072259192421,0.04276010113684286
0.0698885285402485,0.05495094000485497,0.04081464312313795
0.04878036219057981,0.05196455466228799,0.029734859983441834
0.03904776065648498,0.04718053930769041,0.01921472914905809
0.047669406066913035,0.051935560629835884,0.017036082674806354
0.06718155094314496,0.06382311393519957,0.02362532231711511
0.08074773346735753,0.07124558624293886,0.029061944711578146
0.07013888484980721,0.06424352740575512,0.02705652395087548
0.03296097288033885,0.04014223792994154,0.024678001653297903
-0.006384085893747093,0.009162114254865674,0.024544751104414005
-0.027273190472551917,-0.016707811200526407,0.011985886872106622
-0.04180950369630449,-0.03959859982146454,-0.02071379782400194
-0.06417727522844044,-0.06382311393519957,-0.05748428678851358
-0.08685016851285107,-0.08496701210089828,-0.08209566316736953
-0.1002207601702209,-0.09975396865147264,-0.09514755443054734
-0.10028334924761058,-0.10630661998564872,-0.09706636233447548
-0.08085726435278946,-0.09581802874609917,-0.08072984504130959
-0.03984577139320336,-0.06241690336127241,-0.04641782870370586
0.010342845038644187,-0.01791106354728883,-0.010686694020488618
0.04703569165834255,0.019201297991407573,0.006036249864440578
0.05374837020838545,0.0379821825122596,0.004703744375601599
0.0359965431337382,0.03698188839266192,0.0039042410822982105
0.015224793075039022,0.026660012839711988,0.010073741495622686
0.0034502228911059657,0.019650705494415225,0.013904694776034753
-0.0006024198698756448,0.019128812910277307,0.01115307094158226
0.0013691360678991927,0.02196297958247072,0.00818824622891553
0.006830033070148544,0.021484578047010965,0.01054011841671633
0.007213391169160318,0.011742583143103159,0.01207916225632535
-0.008856354450639349,-0.007103537950766108,-0.00014657560377228778
-0.04779458422169239,-0.03811265565829408,-0.030501050639524244
-0.098358735117878,-0.08163994687701906,-0.0675113905920269
-0.1243175549652467,-0.11417125128828262,-0.08706590864073893
-0.09966528210838752,-0.11179374062720988,-0.07623263901647803
-0.046456742692488034,-0.08324911567811097,-0.05006889374312466
-0.004741122612268061,-0.04884769617368653,-0.027116486697873237
0.0128620554035787,-0.011278678623869453,-0.006982328761516254
0.014598902301142249,0.026515042677451455,0.0143644091696842
0.009740425168768543,0.04304888968326522,0.027989277793062768
0.009771719707463381,0.03213988497316013,0.028868731415696496
0.021898353451713374,0.018048785201436338,0.027336350103531668
0.04299869616670836,0.019904403278371157,0.033725713922514576
0.06571853125916124,0.03453189265045892,0.0470241187011276
0.07789993044612721,0.048680980487086925,0.057924013599830446
0.06862109972310754,0.056016470697469886,0.061841579737017045
0.0377725082046703,0.053551977939040825,0.055951905476348755
-0.0026287412503664498,0.030226278831321094,0.03240653348856399
-0.03185784039134579,-0.008683712719405916,-0.0020120832881468593
-0.034064105369331917,-0.03356784107142637,-0.024424825610418498
-0.018987961353093375,-0.03561192035929989,-0.027736101750183362
-0.01408254241267741,-0.033937514985190737,-0.024711314290518878
-0.027320132280594177,-0.036909403311531655,-0.02422494978709265
-0.04625332819097158,-0.04352004271061195,-0.029455033830785647
-0.06334796995302722,-0.055871500535209354,-0.0403549287294885
-0.07358910774091318,-0.06628760669362864,-0.04847654968396208
-0.06841768522159108,-0.06746911351605198,-0.048023497817756826
-0.04737210794931207,-0.06619337608815928,-0.04145424575778066
-0.023729083965361438,-0.06409130873538156,-0.03132054151516022
-0.012298753707071605,-0.05246470172208683,-0.022052965840285113
-0.01024113778788596,-0.029211487695497362,-0.01819536245009627
-0.0024175031141762887,-0.0029501428020018428,-0.01708272036691572
0.01001425238234838,0.009415812038821606,-0.020147482991245372
0.011735452010564508,-0.005523363182126301,-0.03648400028441127
-0.0014317251452888701,-0.03761975710660827,-0.05959630798832337
-0.019973739321980793,-0.06095995323055405,-0.06892384641019622
-0.0317091913325453,-0.06568598052024742,-0.05972289600976307
-0.03366510000097272,-0.06264160711277623,-0.045858176398393485
-0.03187348766069321,-0.05877815228853303,-0.03569115951855207
-0.025919701674000144,-0.046955835556186584,-0.022392754739939055
-0.011234739391447089,-0.021122152641359634,-0.0004463893387610582
0.004717651708246932,0.007929867875651146,0.021413363205642404
0.006039845968103867,0.02537702690370627,0.028109203287058276
-0.0102724323265808,0.034792838942527875,0.015403763450978606
-0.026936774181582402,0.04330983597533418,-0.0032646384476555
-0.027836492169059014,0.040903331281809334,-0.014790810926112674
-0.015936743830346604,0.02225291990699179,-0.021360062986088845
0.0019011432257114505,0.008198062675833132,-0.023891823414882905
0.023635200349276922,0.015816244702624133,-0.014990686749438521
0.035926130421674814,0.032038405859577755,0.0014191183456135133
0.027593959494174015,0.040620639465401294,0.01605002861306551
0.011062619428625476,0.042715458310066,0.030161261739870306
0.0004850653497699997,0.03917093784279597,0.03935554961285927
-0.0034423992564322557,0.026971698688572132,0.03457851743537153
-0.00011735452010564509,0.017468904552394204,0.02365197242689189
0.012040573762839187,0.024094040967700556,0.019527867938935246
0.029721988125423045,0.037837212349999066,0.021386713095865626
0.04443042131199723,0.040671379022192485,0.021499976062416937
0.044837250315030136,0.02990734447434792,0.01986765683858919
0.03161530771646079,0.017367425438811833,0.021306762766535287
0.020709160981309503,0.012953083997978608,0.023785222975775788
0.021131637253689824,0.014004117674367472,0.024038399018655194
0.02239906607083079,0.011684595078198946,0.02307899506669113
0.012384813688482411,0.0054001385442048475,0.022286154300831935
2.3470904021129017e-05,0.005023216122327462,0.023771897920887398
0.001838554148321773,0.013221278798160593,0.027303037466310694
0.015569033000682249,0.017084733622403793,0.028895381525473274
0.02720277776048853,0.012199239154223837,0.032226645247570726
0.03180307494862982,0.013547461663246793,0.045545037608516324
0.034244048966827235,0.02773279204043993,0.06191486753890319
0.03843751715193562,0.041613685076885946,0.06586574631331077
0.046933984407584325,0.04654991910185709,0.05866355414613608
0.059670861656383675,0.048035863265027554,0.052833842632465544
0.06690772372956512,0.049840741785171186,0.04710406903045793
0.06392691891888173,0.048507016292374285,0.033505850516856145
0.06315237908618447,0.044730543565487405,0.02059387233000643
0.07157843362976979,0.05021041569893554,0.024924515168733116
0.07778257592602156,0.07412324396381044,0.04559167530062569
0.06944258136384705,0.10487866388738247,0.06426673972670399
0.04592473553467578,0.11753455905272699,0.06342059874129125
0.009865603323547897,0.09513666898347467,0.031693643052035134
-0.028141613921333693,0.04305613819137825,-0.02227949177338774
-0.043053461609424325,-0.010394360634080203,-0.061042076443713664
-0.035175061492998684,-0.04280968891553534,-0.06278765863409272
-0.03868787346149433,-0.05788658579063076,-0.0481900610038617
-0.06765096902356754,-0.07078893023181818,-0.045978101892388996
-0.10000952203403074,-0.0889174490224978,-0.06182825468212866
-0.10704296960569575,-0.09878266856432706,-0.07576626209538438
-0.0793473028607635,-0.08664866598312047,-0.06893050893764043
-0.03751432826043788,-0.06928848905242166,-0.04838993682718755
-0.009865603323547897,-0.06686023883455774,-0.027542888454301712
0.0019402613990799988,-0.06662103806682786,-0.002491785264128892
0.013753949756381605,-0.04821707596785322,0.031127328219278567
0.02894744829272579,-0.020390053321943942,0.057990638874272395
0.03961106235299207,-0.004283868294798745,0.05934313194544396
0.04598732461206546,0.0033488107482183083,0.042546900258628624
0.060789641414724156,0.02681948001819857,0.03886918510943304
0.08257064034633188,0.07561643663509392,0.05916990623189489
0.09012044780646172,0.12984252582864622,0.07089595453367792
0.07884659024164607,0.15774203355568578,0.04344634146359493
0.06040628331571238,0.14171558211778387,-0.00656925205997617
0.03257761478132708,0.0937304584095475,-0.039228961591419566
-0.008097461887289511,0.04478853163039161,-0.04163413399877392
-0.04286569437725529,0.0188823636344344,-0.03190684393024937
-0.05546174620192787,0.011691843586311972,-0.029061944711578146
-0.05149516342235706,0.006081498306829352,-0.031273903823050855
-0.04198944729379981,-0.0030371248993581626,-0.027409637905417814
-0.047239106159859004,-0.027508088288936104,-0.03158704261292802
-0.08192127866841398,-0.0795016369836762,-0.06543934455688229
-0.12008496860676976,-0.1340249150098626,-0.11058463051874692
-0.12422367134916218,-0.14963095297720896,-0.12762071319355328
-0.08769512105761172,-0.11675896868463313,-0.10443511768775504
-0.03471346704724982,-0.06604115741778573,-0.06407352643082234
0.0015490796653945152,-0.03567715693231713,-0.037963081377022534
0.008809412642597091,-0.03208914541636894,-0.034272041172938555
0.0027852139438406436,-0.03111784532922337,-0.035004919191799995
0.007080389379707254,-0.0149101811884958,-0.022745868694481385
0.03291403107229659,0.013677934809281271,0.00525007162602558
0.07070218654631431,0.04768793487560227,0.04333307849704362
0.10083100367477026,0.08222707603417422,0.08142274789550585
0.11002377441637913,0.10664729986696098,0.10674701471089067
0.09379755610310526,0.10798102535975787,0.10532789636527715
0.057707129353282545,0.0839377239488485,0.07269483694361054
0.019394790356126276,0.04796337818389729,0.026396933733900188
-0.006548382221894996,0.01676579926543062,-0.010993170282921582
-0.02199223706779789,-0.004182389181216372,-0.032080069643798434
-0.03297662014968627,-0.015330594659051346,-0.038376158078562615
-0.040878491170133036,-0.019201297991407573,-0.0339589023830614
-0.047724171509629,-0.023340196123945785,-0.025870594065808793
-0.04895248215340142,-0.026478800136886322,-0.017169333223690252
-0.037201382873489494,-0.02046253840307421,-0.0048103448147087165
-0.024323680200563372,-0.014170833360967083,0.005729773602007613
-0.031881311295366914,-0.02641356356386908,0.00019321329588165205
-0.05924056174932964,-0.0572994566334756,-0.019687768597595925
-0.08508202707659268,-0.08685162421028521,-0.03831619533156486
-0.09619158831326043,-0.10057305006824464,-0.050055568688236275
-0.09128616937284446,-0.10100796055502624,-0.05595856800379295
-0.07220432440366657,-0.09488297119951873,-0.05519237734771054
-0.05146386888366222,-0.08446686504109945,-0.048823001111060214
-0.047223458890511584,-0.07457989997493111,-0.04346632904592752
-0.06290202277662577,-0.07352886629854224,-0.050915034728537416
-0.08333735654435544,-0.08071938634666467,-0.07044290266747266
-0.08926767162702737,-0.08453210161411669,-0.079923679220562
-0.07752439598178915,-0.07658048821412647,-0.0651728434591145
-0.06246389923489803,-0.06265610412900229,-0.037829830828138636
-0.051362161632903996,-0.05326203761451976,-0.013724806535041491
-0.03843751715193562,-0.04920287307122484,0.0027849364716734677
-0.024221972949805146,-0.04628897280978813,0.011186383578803234
-0.018049125192248213,-0.04226605080705834,0.01252555159508641
-0.017720532535952408,-0.032915475341253976,0.012605501924416748
-0.007463747478719028,-0.015758256637719917,0.016722943884929196
0.017384116244982893,0.003276325667088042,0.026270345712460483
0.04677751171411013,0.01883887258575624,0.03860268401166524
0.07479394748066447,0.03719934363605272,0.0492360778126003
0.10009558201544155,0.06542503422817847,0.05592525536657198
0.11406076990801331,0.0928606374359843,0.05750427437084617
0.10897540737010203,0.10240692262084039,0.05743098656896003
0.09572999386751155,0.09500619583744019,0.062314619185554886
0.09393838152723204,0.09004821628812996,0.07123574343333186
0.10575206988453364,0.10200825467462392,0.08082312042552832
0.11409988808138187,0.11881029648061968,0.08846503940401987
0.1020749615878901,0.11501207822939372,0.08538028919735763
0.067854383525084,0.08346657092150177,0.06533274411777518
0.03055911703550998,0.04644119148016169,0.03848275851766973
0.017697061631931278,0.03333588881180952,0.027316362521199084
0.030199229840519336,0.04038143869767142,0.03731015368749143
0.041277496538492234,0.041722412698581346,0.050955009893202584
0.03770209549260691,0.03647449282475006,0.06015596029363574
0.023924674832204177,0.03262553501673291,0.06299419698486276
0.0006337144085704835,0.018940351699338612,0.050475307917220553
-0.026569063351918047,-0.008901167962796715,0.02570403087970392
-0.04597950097739174,-0.03830111686923277,-0.0019254704313723258
-0.05607198970647722,-0.06139486371733565,-0.030474400529747467
-0.053138126703836094,-0.07197043705424153,-0.051527987253403344
-0.024245443853826276,-0.057611142482335745,-0.05408639779197419
0.017360645340961763,-0.021723778814740843,-0.041814022239767185
0.03166224952450304,0.007313744686043881,-0.029235170425127216
0.011782393818606766,0.01135116370499972,-0.024504775939748837
-0.0044594717640145136,0.0059365281445688195,-0.019701093652484316
0.006024198698756447,0.008951907519587902,-0.006922366014518499
0.03051999886214143,0.022064458696053096,0.012891990604517128
0.05539133348986448,0.04702107212920382,0.039901876863283246
0.07479394748066447,0.07567442469999813,0.06482639203201636
0.08101373704626366,0.0881273616381779,0.0731412262823716
0.06991199944426964,0.07780548608522797,0.0666119493870606
0.04361676330593142,0.0502249127151616,0.052167589888046054
0.01526391124840757,0.016454113416570475,0.03463848018236928
0.003536282872516772,-0.0032038405859577753,0.025064428245061207
0.006391909528420802,-0.0016454113416570475,0.02422494978709265
-0.0034502228911059657,-0.006704870004549643,0.010073741495622686
-0.039039937021811265,-0.042628476212709675,-0.030594326023742974
-0.07357346047156577,-0.08379275378658797,-0.07310125111770643
-0.07600661085508947,-0.0899757312069997,-0.08536030161502504
-0.05455420457977755,-0.06397533260557313,-0.06897714662974978
-0.03797592270618675,-0.03517700987251829,-0.04762374617110513
-0.024073323891004663,-0.012547167543649117,-0.0327796350254389
0.007510689286761286,0.011662849553859865,-0.019074816072729994
0.04274833985714965,0.03344461643350492,-0.0023985098799101635
0.04668362809802561,0.03773573323641669,0.009041049741772477
0.01571768205948273,0.020339313765152755,0.005669810855009859
-0.018690663235492407,-0.003986679462164653,-0.004230704927063761
-0.035206356031693524,-0.02227466543133087,-0.0068624032675207456
-0.04264663260639143,-0.037706739203964584,-0.004363955475947659
-0.05202717058016932,-0.053508486890362666,-0.0016656318610487246
-0.05967868529105738,-0.06380861691897352,0.0037709905334143124
-0.058426903743263835,-0.06254012799919385,0.012898653131961323
-0.05345889572545819,-0.05117446727796809,0.02032070870479444
-0.06087570139613496,-0.045324921230755585,0.014897411365219793
-0.07932383195674236,-0.05172535389455811,-0.004017504048849524
-0.08231246040209947,-0.04739074604296818,-0.017355883992127712
-0.056588349594942064,-0.02550750004974075,-0.01970775617992851
-0.023251842250265147,-0.016280149221857835,-0.0353980083110075
-0.002894744829272579,-0.027058680785928452,-0.06623218532274149
0.0110000303512358,-0.024833388795229273,-0.07146893189387868
0.030465233419425464,0.007089040934540055,-0.03510485710346292
0.04957837292729819,0.04663690119921341,0.010893232371258658
0.04971137471675126,0.06825195239225886,0.04170742180066007
0.03265585112806417,0.07064396006955764,0.0578573883253885
0.03053564613148885,0.06917251292261324,0.06428672730903658
0.059123207229224,0.07432620219097517,0.06851076970865615
0.092537950920638,0.08157471030400182,0.07829802252417845
0.10140212900595107,0.08212559692059185,0.09007737104551503
0.08408842547303155,0.07384780065551542,0.0888048283036738
0.056455347805489,0.05929279636455793,0.06588573389564335
0.04072201847665884,0.045716340668859025,0.03714359050138656
0.04321775793757223,0.03617730399211597,0.022152903751948037
0.0376082118765224,0.024978358957489805,0.015183900045320173
0.009677836091378865,0.01066255543426219,-0.002158658891919147
-0.022829365977884822,-0.010633561401810083,-0.04042821653137464
-0.047426873392028036,-0.04552063094980731,-0.09135657631480044
-0.06251084104294029,-0.08124852743891563,-0.12585514342084164
-0.06298025912336286,-0.09535412422686547,-0.11854635081455983
-0.04194250548575756,-0.07716761737128162,-0.06849078212632356
-0.005523486079639029,-0.03374180526613901,0.0007728531835266082
0.02169493895019692,0.004972476565536276,0.0509416848383142
0.02415938387241547,0.010010189704089791,0.058270465026928585
0.015091791285585958,-0.00865471868695381,0.036017623363317625
0.014645844109184507,-0.019541977872719826,0.011965899289774038
0.02722624866450966,-0.013395242992873233,-0.0050302082203671486
0.04402359230896433,-0.0035662659916091076,-0.026456896480897944
0.044805955776335296,-0.006719367020775697,-0.06272769588709497
0.009881250592895316,-0.029363706365870924,-0.10443511768775504
-0.04827182593678868,-0.05716173497932809,-0.12948622087792785
-0.0947129213599293,-0.07126733176727794,-0.1287933180237316
-0.11957643235297863,-0.07349262375797712,-0.1133762295178646
-0.1408176004921004,-0.077812734593341,-0.09957147265349275
-0.16302889933076214,-0.08537292855522778,-0.09166305257723341
-0.16721454388119683,-0.08488727851165499,-0.08086975811763768
-0.14556654673904215,-0.07413774098003649,-0.06280098368898111
-0.11107214146265622,-0.060401818105851,-0.04240698718230053
-0.07293192242832157,-0.04615125115564062,-0.02982813536766056
-0.035026412434198205,-0.03159624686468313,-0.0325197964551153
-0.007455923844045318,-0.019041830812920987,-0.03712360291905398
0.000547654427159677,-0.00969125534711662,-0.025484167474045485
-0.004036995491634191,-0.001232246379214529,-0.005883011733224096
-0.003958759144897094,0.01055382781256679,0.0041107794330682524
0.002096734092554192,0.022419635593591402,0.0037576654785259228
0.0013221942598569346,0.026000398601426562,0.00031980131732135516
-0.00621196593092548,0.022535611723399827,-0.002831574163782832
-0.009591776109968059,0.019389759202346264,-0.0021653214193633422
-0.004216939089129513,0.021143898165698713,0.006036249864440578
0.00668138401134806,0.028609861522116153,0.01814206223054271
0.015639445712745635,0.036517983873428216,0.02489120253151214
0.018956666814398535,0.0398595461135335,0.02438485044575333
0.020842162770762566,0.0411932716063304,0.026203720438018534
0.02836849932687127,0.046064269058284306,0.03527808281701199
0.0442426540798282,0.05375493616620557,0.043946031021909554
0.061259059495146734,0.05627016848142582,0.04729061979889539
0.0685115688376756,0.05271839950604276,0.050635208575881226
0.06693119463358625,0.05339251076055424,0.057824075688167526
0.06997458852165932,0.06283006832371493,0.06417346434248526
0.0815379205694022,0.07010032196108065,0.06365378720183806
0.09291348538497607,0.06704870004549643,0.058870092496906126
0.0994931621455659,0.06464219535197159,0.05892339271645968
0.09793625884549768,0.07243434157347522,0.06596568422497369
0.07962895370901704,0.07606584413810158,0.07008312618548614
0.04211462544857917,0.053378013744328184,0.05930981930822299
0.0008605998141080639,0.009046138125057248,0.0359176854516547
-0.02768001947558482,-0.02962465265793988,0.01610332883261907
-0.041950329120431264,-0.04674562882090881,0.01177934852133658
-0.04063595849524804,-0.044339124127383965,0.023392133856568288
-0.020443157402403375,-0.030458231090937947,0.041687434218327483
0.012940291750315799,-0.011829565240459479,0.05290046790690749
0.050180792797173836,0.006980313312844656,0.05147468703384979
0.08570009421581576,0.022347150512461136,0.04382610552791404
0.11459277706582557,0.03519875539685737,0.03952877532640833
0.12661770355931734,0.04986248730951026,0.043439678936150736
0.10681608420015816,0.06376512587029537,0.04763040869854933
0.058653789148801413,0.0673386403700175,0.0352647577621236
0.01604627471577854,0.05890137692645449,0.005536560306125961
-0.0020654395538593534,0.042584985164031516,-0.017768960693667794
-0.01649222189217999,0.014388288604357882,-0.01935464222538618
-0.05043897274140626,-0.0315889983565701,-0.01921472914905809
-0.09982175480186171,-0.08620650698822585,-0.039275599283528924
-0.13541929256724072,-0.12347833570540884,-0.06613224741107857
-0.13328344030131797,-0.12413794994369426,-0.07441376902421282
-0.0981944387897301,-0.09588326531911641,-0.05826380249948439
-0.05000084919967852,-0.05921306277531463,-0.02790932746373243
-0.009357067069756768,-0.027268887521206223,0.0006529276895311001
0.012916820846294669,-0.0010945247250670228,0.018068774428656564
0.02942469000782208,0.030030569112269374,0.032553109092336274
0.05398307924859674,0.06533805213082214,0.04987568044724301
0.0729553933323427,0.07642826954375291,0.05384654680398317
0.07272068429213141,0.052689405473590654,0.03281961019010407
0.06694684190293367,0.02883456527361998,0.002778273944229273
0.06534299679482318,0.03088589306960652,-0.02080041068077647
0.0500712619117419,0.04117877459010435,-0.04663769210936429
0.01267428817140967,0.03703987645756614,-0.07723868066055146
-0.022805895073863696,0.020506029451752367,-0.09088353686626262
-0.04058119305253207,-0.002623959936915644,-0.08247542723168864
-0.05111180532334529,-0.030269769879999252,-0.07304795089815287
-0.06028892879560674,-0.051391922521358886,-0.06873729564175877
-0.06168153576752706,-0.05930004487267095,-0.061961505231012556
-0.052848652220908836,-0.057263214092910464,-0.051881101207945673
-0.041402674693271586,-0.047898141610880046,-0.03804969423379707
-0.03609042674982272,-0.035858369635142794,-0.02139337562330982
-0.03634078305938143,-0.02550750004974075,-0.007568631176605405
-0.03336780188337175,-0.016816538822221807,8.661285677453369e-05
-0.017767474343994664,-0.007567442469999813,0.004377280530836049
0.006298025912336286,0.004544814586867704,0.00920761292787735
0.018518543272670794,0.011148205477834974,0.009034387214328282
0.006493616779179028,-0.0008118329086589838,-0.0027982615265618573
-0.01719634901281386,-0.024202768589395955,-0.017728985529002626
-0.028728386521861916,-0.03801842505282473,-0.022099603532394478
-0.020967340925541922,-0.033807041839156254,-0.015583651691971867
-0.0065640294912424155,-0.018374968066522536,-0.006342726126873544
0.0073698638626345115,0.0005363896003639715,0.006662527444194898
0.025176456379997728,0.019121564402164278,0.02832906669271671
0.0468322771568261,0.03345186494161795,0.04809678561964297
0.06348879537715399,0.03946812667543006,0.0492360778126003
0.06560900037372931,0.03763425412283432,0.0344785795237086
0.04697310258095287,0.031473022226761675,0.01901485332573224
0.00952136339790467,0.018744641980286893,0.007268817441616634
-0.02484004008902821,-0.0008770694816762236,-0.00360442734730944
-0.03742826827902707,-0.01868665391538268,-0.01602337850328873
-0.03600436676841191,-0.028696843619472473,-0.024105024293097143
-0.02862667927110369,-0.02839965478683838,-0.013584893458713398
-0.016406161910769185,-0.018983842748016774,0.009200950400433155
-0.007354216593287092,-0.007792146221503639,0.021253462546981728
-0.009161476202914026,0.0011960038386493958,0.02229281682827613
-0.015811565675567248,0.007799394729616666,0.03138716678960217
-0.011125208506015154,0.012655895165344516,0.053906509550980926
0.008253934580763704,0.016693314184300354,0.0766590407729065
0.02839979386556611,0.01735292842258578,0.08666615699408724
0.0383436335358511,0.011865807781024612,0.08066988229431184
0.04087066753545933,0.003957685429712546,0.06357383687250773
0.048037116896577386,0.003921442889147413,0.04600475200216578
0.06300373002738399,0.020752478727595274,0.03967535093018062
0.06814385800801125,0.047615449794472006,0.04405929398846086
0.040972374786217555,0.05674132150877255,0.03629744951597381
-0.015921096560999184,0.029552167576809615,-0.0008727910951895318
-0.06693119463358625,-0.010336372569175991,-0.04263351311540316
-0.08117803337441157,-0.024449217865238862,-0.050122193962678224
-0.06397386072692399,-0.012090511532528438,-0.024264924951757822
-0.03770991912728062,-0.003066118931810269,-0.00027316362521199084
-0.019872032071222567,-0.009988444179750712,-0.0019454580137049104
-0.017681414362583858,-0.01838946508274859,-0.016989444982696993
-0.019973739321980793,-0.016178670108275464,-0.022652593310262654
-0.01314370625183225,-0.012532670527423063,-0.021739827050407955
-0.0056799587731132225,-0.022477623658495614,-0.03064096371585234
-0.007213391169160318,-0.039294162480717425,-0.04753047078688641
-0.007815811039035963,-0.04120052011444343,-0.05451279954840266
-0.00310598296546274,-0.027065929294041478,-0.047637071225993526
-0.0036849319313172558,-0.016258403697518756,-0.040481516750928204
-0.010397610481360155,-0.014141839328514977,-0.0346118300725925
-0.011672862933174832,-0.00891566497902277,-0.019614480795709783
-0.005140127980627255,0.0025514748557853776,0.001052679336182794
0.00095448343019258,0.013148793717030326,0.01572356476829996
0.0065014404138527375,0.020795969776273432,0.02517769121161252
0.01671910729771757,0.02740660917535373,0.034012202602614956
0.026537768813223207,0.03453914115857194,0.03840947071578359
0.03010534622443482,0.04270096129383994,0.03507820699368614
0.033766807251730944,0.04987698432573632,0.02896866932735942
0.04148873467468239,0.052124021840774575,0.02665677230422379
0.04033866037764707,0.04362152182419433,0.025424204727047733
0.018064772461595633,0.022840049064146946,0.015563664109639283
-0.013425357100085798,-0.0025369778395593246,-0.004397268113168633
-0.030926827865174335,-0.021542566111915178,-0.020334033759682832
-0.02840761750023982,-0.0247319096816469,-0.016909494653366653
-0.012353519149787573,-0.010220396439367565,0.0032513133927671105
0.011179973948731122,0.009118623206187514,0.024937840223621506
0.03187348766069321,0.018824375569530188,0.039901876863283246
0.044054886847659167,0.021615051193045444,0.04935600330659581
0.054749795446620286,0.027696549499874795,0.054612737460065584
0.06546035131492883,0.03437967398008536,0.05539891569848058
0.06753361450346189,0.034466656077441676,0.05249405373281161
0.06447457334604141,0.033937514985190737,0.04724398210678603
0.06765096902356754,0.038040170577163815,0.0434929791557043
0.07149237364835899,0.041722412698581346,0.04625792804504518
0.06450586788473625,0.04688335047505632,0.05392649713331351
0.04956272565795077,0.053870912296014,0.060315860952296414
0.036958850198604495,0.05067432021816925,0.06437334016581112
0.029221275506305627,0.03551044124571751,0.06786450454656924
0.019684264839053535,0.020201592111005248,0.06593903411519692
-0.0008293052754132252,0.0077269096484864,0.046497779033036195
-0.04126967290381852,-0.016113433535258223,-0.00033312637220974495
-0.09185729470402526,-0.05761839099044877,-0.06416680181504107
-0.12402808048231943,-0.09654287955740183,-0.11493526093980619
-0.1334555602641396,-0.11883929051307178,-0.14008630204164194
-0.14447906151939652,-0.1373447317256288,-0.15934766888280938
-0.16310713567749924,-0.1575608208528601,-0.18044789329857464
-0.1667060076274057,-0.16280149221857837,-0.1803945930790211
-0.14445559061537538,-0.1444192756439428,-0.15055979518391632
-0.11003942168572654,-0.11207643244361792,-0.11273662688322188
-0.07520077648369737,-0.07665297329525673,-0.08395450832429992
-0.04399229777026949,-0.0422805478232844,-0.06068229996172714
-0.020012857495349343,-0.01167734657008592,-0.036977027315281685
-0.004044819126307901,0.006813597626245043,-0.015890127954404833
0.0031842193121998366,0.008060341021685624,-0.000526339668091397
0.0038570518941388686,0.0009857971033716232,0.010366892703167261
0.007229038438507737,0.00037692242187738537,0.01585681531718386
0.020450981037077084,0.016113433535258223,0.015023999386659496
0.03914164427256949,0.0428241859317614,0.011446222149126837
0.045768262841201585,0.05962622773775715,0.007801819637152227
0.02679594875745563,0.05559605722691434,0.004617131518827065
-0.003199866581547256,0.038148898198859214,0.00029315120754457556
-0.015162203997649346,0.012047020483850278,-0.012325675771760563
-0.009591776109968059,-0.02626859340160855,-0.03854272126466749
-0.013519240716170314,-0.07046999587484501,-0.06807770542478347
-0.025129514571955468,-0.09190383436506479,-0.07684559154134396
-0.009990781478327252,-0.06356941615124365,-0.05105494780486551
0.03514376695430385,-0.0008408269411110903,-0.009600702047084849
0.061736301210243025,0.04883319915746048,0.013091866427842975
0.035315886917125464,0.06035832705717284,0.006662527444194898
-0.015803742040893538,0.042411020969318876,-0.012312350716872172
-0.04597167734271804,0.010865513661426934,-0.024664676598409513
-0.05140127980627255,-0.0206509996140129,-0.024138336930318118
-0.05365448659230093,-0.041765903747259504,-0.02064717254955999
-0.053936137440554484,-0.04755746172956779,-0.024091699238208752
-0.037631682780543525,-0.03584387261891674,-0.02714979933509421
-0.00787840011642564,-0.012467433954405823,-0.017136020586469278
0.01286987903825241,0.0030226278831321095,0.0004330642838726684
0.016523516430874827,-0.001210500854875449,0.00826819655824587
0.019402613990799986,-0.01139465475367788,0.00554988536101435
0.0313023623295124,-0.010430603174645336,0.005350009537688503
0.04035430764699449,-0.0015874232767528343,0.009467451498200951
0.03509682514626159,0.0069440707722795226,0.0158035150976303
0.022015707971819017,0.01743266201182907,0.03196014414980293
0.009044121682808381,0.027950247283830727,0.05430626119763262
-0.005460897002249351,0.03189343569731722,0.0654193569745497
-0.015569033000682249,0.030465479599050972,0.061268602376816285
-0.00910671076019806,0.03008130866906056,0.052860492742242325
0.011070443063299186,0.03603958233796846,0.04959585429458682
0.0300896989550874,0.04528867869019045,0.0522475402173764
0.04029171856960481,0.04804311177314058,0.05358004570621538
0.04081590209274336,0.03677168165738415,0.04353961684781366
0.030402644342035788,0.011061223380478654,0.017822260913221352
0.012729053614125636,-0.01448251920982723,-0.010666706438156032
-0.0023001485940706435,-0.021462832522671886,-0.01863508926141313
-0.006673560376674351,-0.01331550940362994,-0.0043506304210592685
-0.007009976667643867,-0.008661967195066836,0.004157417125177617
-0.0207873973280466,-0.013532964647020739,-0.009620689629417433
-0.041449616501313846,-0.013532964647020739,-0.025970531977471716
-0.03934505877408594,0.0002102067352777726,-0.028515617461154167
-0.011962337416102089,0.01152512789971236,-0.027862689771623067
0.014497195050384023,0.008647470178840783,-0.0293817460288995
0.02462880195283805,0.003551768975383054,-0.023345496164458926
0.025207750918692564,0.0069223252479404425,-0.005676473382454053
0.030879886057132076,0.015866984259415316,0.017822260913221352
0.04322558157224594,0.023253214026589464,0.038023044124020286
0.054076962864681256,0.028624358538342207,0.050508620554441525
0.06537429133351802,0.04001901329202009,0.06115533941026497
0.0782128758330756,0.05398688842582242,0.07304128837070867
0.08073208619801012,0.05437105935581284,0.07597280044615443
0.0706083029302298,0.04422314799757554,0.0660922722464134
0.056455347805489,0.04039593571389747,0.05288048032457491
0.03573836318950578,0.0384170929990412,0.03912236115231244
0.009865603323547897,0.02621785384481736,0.024558076159302396
-0.0019480850337537084,0.011742583143103159,0.014864098727998818
0.009051945317482091,0.009133120222413568,0.009793915342966501
0.02718713049114111,0.01590322679998045,0.0032646384476555
0.03586354134428514,0.018867866618208346,-0.0020120832881468593
0.03468999614322869,0.01622940966506665,0.002478460209240502
0.02891615375403095,0.012358706332710424,0.009107675016214426
0.022039178875840146,0.006030758750038166,0.0005729773602007613
0.02196876616377676,0.0006233716977202911,-0.017795610803444575
0.028994390100768045,0.004457832489511385,-0.023332171109570535
0.030934651499848045,0.01938251069423324,-0.00829484666802265
0.02343960948243418,0.035358222575343955,0.013478293019606279
0.009975134208979832,0.036220795040794125,0.02265925583770685
-0.006556205856568706,0.01783132995804554,0.013851394556481194
-0.02674118331473966,-0.01117719951028708,-0.004450568332722192
-0.05660399686428948,-0.044687052516809246,-0.02527096659583125
-0.08586439054396365,-0.07162250866481625,-0.04064141740958888
-0.08903296258681608,-0.07622531131658816,-0.04299328959738968
-0.0668138401134806,-0.06324323328615744,-0.03976196378695515
-0.04971137471675126,-0.05605271323803502,-0.04320649047560392
-0.05491409177476819,-0.0639100960325559,-0.04920942770282352
-0.0639034480148606,-0.07110786458879136,-0.04543843716940921
-0.05256700137265529,-0.0618152771878912,-0.029521659105227596
-0.022297358820072565,-0.03439417099631141,-0.004457230860166387
0.010061194190390638,0.0017251449309003406,0.022086278477506088
0.031396245945596916,0.029320215317192765,0.037003677425058466
0.03976753504646627,0.04013498942182851,0.03804969423379707
0.04203638910184207,0.042113832136684785,0.03343256271497
0.048037116896577386,0.046781871361473944,0.03505155688390936
0.06420074613246157,0.06155433089582224,0.05365333350810152
0.08415101455042123,0.08222707603417422,0.08094304591952382
0.09197464922413091,0.09117898355376212,0.09386834916126192
0.07892482658838318,0.07548596348905943,0.08302841700955682
0.047426873392028036,0.0373298167820872,0.05405308515475321
0.005468720636923061,-0.011764328667442238,0.008901136665444384
-0.032452436626547725,-0.051029497115707555,-0.04268681333495671
-0.052833004951561416,-0.06038732108962495,-0.07305461342559706
-0.058121781990989156,-0.04407817783531501,-0.0677912167446831
-0.06358267899323851,-0.02915349963059315,-0.0462312779352684
-0.0688323378592977,-0.026783237477633438,-0.029581621852225348
-0.05188634515604255,-0.01783132995804554,-0.012718764890968062
-0.010233314153212252,0.007234011096800588,0.012585514342084164
0.026248294330295952,0.03405349111499916,0.036977027315281685
0.03133365686820724,0.04467255550058319,0.04036159125693269
0.009239712549651124,0.026920959131780945,0.011772685993892387
-0.014192073298109346,-0.007045549885861895,-0.02627700823990468
-0.020740455520004343,-0.02354315435111053,-0.036757163909623254
-0.01340188619606467,-0.010633561401810083,-0.016409805095052035
-0.0048037116896577385,0.009365072482030421,0.006329401071985153
-0.002081086823206773,0.014968169253400014,0.01145288467657103
-0.005609546061049835,0.0054001385442048475,-0.0005929649425333459
-0.013104588078463701,-0.012474682462518849,-0.01950121782915847
-0.017759650709320958,-0.031929678237882356,-0.03327932458375352
-0.016945992703255152,-0.045904801879797716,-0.03714359050138656
-0.01820559788572241,-0.04860849540595666,-0.03352583809918873
-0.02008327020741273,-0.0384170929990412,-0.02313229528624469
-0.014192073298109346,-0.024137532016378714,-0.009294225784651883
-0.008261758215437414,-0.016845532854673915,-0.003564452182644271
-0.01286987903825241,-0.014424531144923015,-0.011319634127687132
-0.019183552219936117,-0.00558859975514354,-0.02101361155899071
-0.01242393186185096,0.012895095933074394,-0.0191947415667255
0.00167425782017387,0.02533353585502811,-0.01055344347160472
0.0044047063212985455,0.018476447180104907,-0.00912766259854701
-0.003935288240875965,0.0051536892683619415,-0.01447100960879132
-0.010147254171801446,0.0028196696559673632,-0.016356504875498477
-0.009709130630073703,0.006987561820957682,-0.013618206095934372
-0.004968008017805642,0.0011452642818582093,-0.011432897094238446
-0.0028790975599251594,-0.01409109977172379,-0.010067078968178492
-0.005593898791702416,-0.020679993646465007,-0.0025850606483476205
-0.0048115353243314484,-0.01227897274346713,0.014177858401246744
0.003622342853927578,0.00023920076772987917,0.02874214339425679
0.012361342784461283,0.007226762588687562,0.02970154734622086
0.012807289960862734,0.008393772394884851,0.020160808046133762
0.009404008877799026,0.008741700784310129,0.01026695479150434
0.015592503904703377,0.012554416051762142,0.006722490191192652
0.03335997824869805,0.01769360830389803,0.005130146132030072
0.04890554034535916,0.017468904552394204,-0.000719552963973049
0.047833702395060934,0.01035811809351507,-0.0047237319579341835
0.03271061657078014,0.0031820950616186956,-0.0006062899974217358
0.020200624727518376,0.004291116802911772,0.011566147643122344
0.016805167279128376,0.014431779653036042,0.030001361081209627
0.01858113235006047,0.02468841863296874,0.044838809699431666
0.02602140892475837,0.025949659044635375,0.04756378342410738
0.031380598676249497,0.01778059040125435,0.040608104772367905
0.022743305996474016,0.006306202058333178,0.027696126585518194
0.010546259540160639,-0.003153101029166589,0.013258429613947848
0.00691609305155935,-0.010024686720315845,0.0036510650394188044
0.005593898791702416,-0.012902344441187421,0.002778273944229273
0.0003990053683591933,-0.011097465921043787,0.003817628225523677
-0.017744003439973538,-0.015635031999798463,-0.01211913742099052
-0.05606416607180351,-0.034575383699137076,-0.04902287693438606
-0.0956048157127322,-0.052595174868121305,-0.08220226360647666
-0.10866246198315364,-0.053269286122632785,-0.09041049741772478
-0.09381320337245268,-0.04663690119921341,-0.08002361713222493
-0.06991199944426964,-0.047079060194108034,-0.0647930793947954
-0.05181593244397916,-0.0512324553428723,-0.049555879129921654
-0.03937635331278078,-0.04831130657332256,-0.035291407871900375
-0.021389817197922243,-0.03173396851883063,-0.019607818268265586
0.0025192103649345145,-0.01249642798685793,-0.00620281305054545
0.022594656937673534,-0.007270253637365721,-0.004497206024831556
0.03937635331278078,-0.010155159866350323,-0.009307550839540274
0.055453922567254156,-0.003008130866906056,-0.007828469746929006
0.0660001821074148,0.020201592111005248,0.004250692509396345
0.0645528096927785,0.048869441698025616,0.026430246371121163
0.04686357169552094,0.0668529903264447,0.04920942770282352
0.01743105805302515,0.06601941189344665,0.05360669581599215
-0.004169997281087256,0.05467549669655995,0.04030829103737914
0.007244685707855156,0.05370419660941438,0.03766326764203376
0.050548503626838194,0.07051348692352316,0.057344373712185495
0.09494763040014058,0.09002647076379089,0.08008357987922268
0.12047615034045525,0.10202275169084997,0.09250253103520197
0.1283623740915546,0.11004685017197047,0.09697308695025675
0.12030403037763364,0.11021356585857008,0.09312880861495629
0.09206853284021542,0.08993948866643456,0.07504004660396714
0.044101828655701426,0.05153689268361942,0.04407928157079345
-0.00837128910086935,0.013873644528332991,0.012805377747742595
-0.045705673763811905,-0.010474094223323497,-0.00859466040301142
-0.05956915440562545,-0.0215208205875761,-0.019827681673924017
-0.05523486079639029,-0.022173186317748495,-0.022012990675619945
-0.04628462272966642,-0.01907807335348612,-0.017535772233120972
-0.03731873739359514,-0.01672230821675246,-0.012385638518758317
-0.02128810994716402,-0.011213442050852214,-0.007195529639730491
-0.006571853125916125,-0.007835637270181798,-0.004803682287264522
-0.006743973088737738,-0.011024980839913521,-0.00825487150335748
-0.012056221032186605,-0.007110786458879135,-0.0035777772375326605
-0.0157724475021987,0.0015729262605267812,0.01211913742099052
-0.02795384668916466,-0.008082086546024705,0.013358367525610771
-0.04276398712649707,-0.03206739989202986,-0.0070156413987372285
-0.04201291819782094,-0.043070635207604305,-0.02331218352723795
-0.03428316714019578,-0.04315761730496062,-0.027955965155841794
-0.043593292401910295,-0.05882889184532422,-0.040668067519365664
-0.06352008991584883,-0.08893194603872386,-0.05984282150375858
-0.06895751601407706,-0.10476268775757404,-0.06475976675757442
-0.05895891090107609,-0.0967240922602275,-0.055971893058681346
-0.05345889572545819,-0.08476405387373354,-0.049582529239698435
-0.061212117687104474,-0.08198062675833132,-0.05376659647465283
-0.07007629577241753,-0.07823314806389654,-0.06260110786565527
-0.06659477834261673,-0.06280107429126282,-0.06172831677046574
-0.05456985184912497,-0.043599776299855245,-0.050435332752555385
-0.04939060569512916,-0.03664120851134967,-0.04527853651074853
-0.05416302284609206,-0.04041768123823655,-0.0484565621016295
-0.055148800814979484,-0.03790244892301631,-0.041913960151430105
-0.042145919987274,-0.023557651367336584,-0.01876833981029703
-0.01748582349574112,-0.006820846134358069,0.004657106683492234
0.005374837020838545,0.0041244011163121585,0.014890748837775598
0.017751827074647248,0.014033111706819578,0.020187458155910543
0.031122418732017078,0.0364310017760719,0.0300346737184306
0.04918719119361271,0.06475092297366698,0.03537135820123072
0.053920490171207064,0.0733259080713775,0.02545085483682451
0.04174691461891481,0.06164131299317856,0.012045849619104376
0.03181089858330353,0.05113097622928993,0.009727290068524552
0.031075476923974818,0.04121501713066948,0.004757044595155158
0.02717148322179369,0.01778059040125435,-0.01616995410706102
0.017814416152036924,-0.006458420728706738,-0.031173965911387932
0.011062619428625476,-0.007190520048122428,-0.01746248443123483
0.0031920429468735466,0.00929983590901318,0.0070556165634023974
-0.007135154822423221,0.015200121513016867,0.011919261597664673
-0.009364890704430478,0.0020513277959865396,0.0027849364716734677
-0.004475119033361933,-0.009365072482030421,0.006209475577989646
-0.001697728724194999,-0.002768930099176177,0.022226191553834183
0.004036995491634191,0.015924972324319532,0.03320603678186738
0.021405464467269663,0.037663248155286426,0.0404881792783724
0.043037814340076905,0.05590774307577449,0.05316030647723109
0.056956060424606415,0.06329397284294863,0.0649130048887909
0.06502222777320109,0.062482139934289645,0.06679850015549806
0.07543548552390866,0.06599766636910757,0.06456655346169277
0.09252230365129059,0.08337958882414545,0.07114246804911313
0.12148539921336379,0.11683870227387642,0.09166305257723341
0.15274081973483394,0.1496961895502262,0.11390923171340019
0.15322588508460394,0.14971793507456527,0.11548825071767437
0.10845122384696348,0.10964093371764097,0.08899137907211126
0.038531400768020134,0.04624548176110997,0.040601442244923715
-0.0366380811769824,-0.0318064535999609,-0.023458759131010237
-0.09777196251734978,-0.10549478707698974,-0.08395450832429992
-0.11822294355442686,-0.1400121827112226,-0.11229690007190501
-0.09644194462281913,-0.12368129393257359,-0.09763267716723205
-0.06257343012032995,-0.07990030492989267,-0.05886342996946193
-0.047606816989523355,-0.04873172004387811,-0.03202676942424488
-0.06089134866548238,-0.04983349327705816,-0.03308611128787187
-0.08512896888463495,-0.06340270046464402,-0.045598337828069886
-0.09845261873396252,-0.06833893448961517,-0.05691130942831282
-0.09803014246158219,-0.06802724864075503,-0.06903044684930335
-0.08794547736717043,-0.06827369791659793,-0.07662572813568552
-0.06981029219351141,-0.06596867233665546,-0.07372086617001655
-0.05327112849328916,-0.06040906661396403,-0.0679178047661228
-0.046918337138236905,-0.05622667743274765,-0.06513286829444932
-0.04404706321298545,-0.05437830786392586,-0.05883677985968515
-0.03399369265726853,-0.049210121579337865,-0.04351296673803688
-0.017344998071614343,-0.03898247663185728,-0.0254641798917129
-0.002034145015164515,-0.027500839780823075,-0.012332338299204756
0.006196318661578061,-0.01674405374109154,-0.005096833494809098
0.0029495102719885465,-0.011191696526513134,-0.003924228664630795
-0.015201322171017894,-0.01685278136278694,-0.004044154158626303
-0.04030736583895223,-0.028617110030229178,0.0028382366912270266
-0.052222761447012066,-0.03142953117808352,0.015363788286313436
-0.042075507275210616,-0.020774224251934353,0.021066911778544268
-0.022915425959295632,-0.009575279217308193,0.00952075171775451
-0.004991478921826771,-0.002906651753323683,-0.010100391605399467
0.014387664164952088,0.003877951840469253,-0.02227949177338774
0.028517148385671758,0.002486238282768138,-0.031027390307615643
0.021843588008997404,-0.01398237215002839,-0.046204627825491625
-0.0043968826866248355,-0.03319091864954899,-0.06494631752601188
-0.029581162701296272,-0.03996102522711587,-0.07583288736982634
-0.03670067025437208,-0.03312568207653175,-0.0689704841023056
-0.03332868371000321,-0.02343442672941513,-0.04997561835890593
-0.03362598182760417,-0.01823724641237503,-0.03492496886246966
-0.025184280014671434,-0.010698797974827323,-0.023725260228778033
-0.0008214816407395156,0.0034720353861397613,-0.005469935031684012
0.016054098350452246,0.015337843167164373,0.01576353993296513
0.02169493895019692,0.021361353409089512,0.029874773059769925
0.03742826827902707,0.0253842754118193,0.03641071248252512
0.06370785714801787,0.030893141577719545,0.041840672349543966
0.08319653112022865,0.043411315088916554,0.05364667098065733
0.08489425984442366,0.05997415612718243,0.06861737014776326
0.06626618568632092,0.06580920515816888,0.0730146382609319
0.039501531467560136,0.05671957598443347,0.0651528558767819
0.033477332768803686,0.050572841104586874,0.060908825894829766
0.053662310226974645,0.05922031128342766,0.06755802828413628
0.06808909256529527,0.07010032196108065,0.07468693264942482
0.056940413155258995,0.06703420302927038,0.071035867610006
0.03265585112806417,0.04832580358954862,0.05635165712300045
0.015686387520787895,0.030675686334328746,0.043433016408706546
0.019903326609917407,0.030929384118284678,0.04176072202021362
0.04355417422854175,0.042911168029117715,0.04599808947472158
0.06188495026904351,0.04920287307122484,0.04723731957934183
0.055007975390852705,0.04242551798554493,0.04176738454765782
0.03829669172780885,0.030306012420564386,0.03402552765750335
0.032162962143620466,0.022564605755851935,0.03010129899287255
0.027648724936889982,0.012568913067988196,0.021506638589861134
0.008872001719986769,-0.009046138125057248,-0.0051368086594742665
-0.023596082175908372,-0.033792544822930204,-0.039941852027948414
-0.0553209207778011,-0.04879695661689535,-0.05914325612211811
-0.06553858766166593,-0.05252268978699104,-0.058270465026928585
-0.050470267280101094,-0.050870029937220965,-0.05178116329628275
-0.028086848478617723,-0.04604977204205825,-0.04641116617626166
-0.01193886651208096,-0.032712517114089235,-0.03794975632213414
-0.009169299837587736,-0.012706634722135702,-0.029868110532325732
-0.02200788433714531,-0.002174552433907992,-0.02816916603405603
-0.036145192192538686,-0.00943030905504766,-0.024704651763074684
-0.038367104439872235,-0.021673039257949656,-0.010953195118256414
-0.0291195682555474,-0.02044079287873513,0.008961099412442138
-0.010295903230601929,-0.0017323934390133671,0.027369662740752643
0.013644418870949668,0.020208840619118276,0.039582075545961895
0.03395457448389998,0.031567252832231024,0.0453185116754137
0.04346811424713094,0.03506828225082289,0.04859647517795759
0.04276398712649707,0.042005104514989386,0.055445553390589944
0.04141049832794529,0.050964260542690314,0.06370708742139163
0.04807623506994594,0.051268697883437436,0.06414015170526428
0.06255778285098254,0.04625997877733602,0.0575975497550649
0.07463747478719028,0.049166630530659707,0.053659996035545714
0.07577972544955189,0.064482728173485,0.05649823272677274
0.07398028947459866,0.08493801806844618,0.059676258317653705
0.08246110946089995,0.10236343157216223,0.05698459723019897
0.09499457220818285,0.11227939067078267,0.049489253855479705
0.09004221145972462,0.10805351044088814,0.035571234024556565
0.06370785714801787,0.08893919454683688,0.018788327392629613
0.0352611214744095,0.0647799170061191,0.011146408414138066
0.015600327539377087,0.041613685076885946,0.011392921929573276
0.0005633016965070965,0.020390053321943942,0.01207916225632535
-0.012040573762839187,0.003428544337461601,0.013345042470722383
-0.019965915687307084,-0.0076616730754691595,0.015090624661101445
-0.022625951476368374,-0.013112551176465193,0.015783527515297716
-0.026866361469519016,-0.019694196543093383,0.011106433249472896
-0.04022912949221514,-0.038351856426023956,-0.006655864916750704
-0.05918579630661367,-0.06825195239225886,-0.03706364017205622
-0.0737690513384085,-0.09045413274245946,-0.06397358851915942
-0.07132807732021108,-0.08576434799333121,-0.06868399542220521
-0.05126045438214578,-0.06296778997786243,-0.05552550371992029
-0.03958759144897094,-0.05305907938735501,-0.049076177153939624
-0.05840343283924271,-0.07128182878350399,-0.06278099610664853
-0.09662971185498817,-0.10563975723925027,-0.08739237248550448
-0.12603093095878912,-0.13300287536592584,-0.10309594967147186
-0.1299036301222754,-0.13695331228752536,-0.0976793148593414
-0.10885805284999638,-0.11775201429611779,-0.0751066718784091
-0.07395681857057754,-0.08914215277400163,-0.04735724507333734
-0.041919034581736424,-0.0641275512759467,-0.022452717486936807
-0.023729083965361438,-0.04038143869767142,0.00033312637220974495
-0.023275313154286277,-0.018034288185210284,0.01811541212076593
-0.03702143927599417,-0.011010483823687469,0.019427930027272323
-0.03483864520202917,-0.012786368311378995,0.004870307561706471
0.010335021403970477,0.001616417309204941,-0.005982949644887019
0.0653508204294969,0.0297116347552962,0.00017988824099326225
0.07780604683004269,0.044542082354548714,0.014137883236581574
0.04752075700811255,0.034655117288380374,0.019661118487819144
0.010233314153212252,0.011836813748572506,0.011079783139696117
-0.007096036649054673,-0.005327653463074581,-0.002225284166361096
0.0016664341855001602,-0.004820257895162716,-0.0033445887769858393
0.024229796584478856,0.009466551595612794,0.00920761292787735
0.03912599700322207,0.021629548209271498,0.015357125758869241
0.034181459889437556,0.020658248122125928,0.002505110319017282
0.019027079526461925,0.013214030290047567,-0.01602337850328873
0.011891924704038702,0.012141251089319623,-0.026869973182438025
0.013448828004106928,0.010995986807461415,-0.04185399740443235
0.0078079874043622535,-0.004363601884042038,-0.06807770542478347
-0.008981532605418703,-0.022049961679827042,-0.0798104162540107
-0.02748442860874208,-0.024079543951474502,-0.062254656438557134
-0.045690026494464485,-0.022339902004348107,-0.041107794330682526
-0.059929041600616094,-0.03299520893049727,-0.03667055105284872
-0.05410043376870238,-0.043694006905324594,-0.034525217215817965
-0.024988689147828695,-0.03617730399211597,-0.018135399703098513
0.0030433938880730627,-0.014924678204721854,0.0034578517435371525
0.009576128840620639,0.006038007258151192,0.016749593994705974
0.0028556266559040303,0.02431874471920438,0.026370283624123407
0.0040291718569604815,0.04302714415892614,0.039708663567401596
0.022625951476368374,0.05923480829965371,0.05247406615047902
0.05154210523039932,0.07097014293464385,0.062094755779896454
0.07655426528224915,0.07823314806389654,0.07315455133725998
0.08494120165246591,0.0751452836077472,0.08234217668280475
0.08068514438996785,0.06393184155689498,0.08501385018792691
0.08437007632128511,0.061402112225448675,0.09185626587311507
0.1020045488758267,0.07299247669817828,0.10766644349818956
0.11407641717736074,0.08248077381813015,0.1130964033652084
0.10210625612658493,0.07555120006207668,0.09411486267669714
0.06750231996476705,0.05621942892463463,0.059163243704450696
0.023017133210053855,0.03408248514745127,0.017582409925230337
-0.024527094702079824,0.005726321409291047,-0.029208520315350435
-0.07563890002542512,-0.03717034960360062,-0.07871109922571853
-0.11769876003128832,-0.08279970817510332,-0.11844641290289691
-0.12841713953427056,-0.10602392816924068,-0.13223118218493615
-0.10853728382837428,-0.10202275169084997,-0.12074498487114414
-0.08073990983268382,-0.08672839957236377,-0.0985987436466403
-0.057597598467850605,-0.06774455682434699,-0.07298132562371092
-0.0359965431337382,-0.04275170085063113,-0.04454565849188709
-0.01551426755796628,-0.01657733805449193,-0.01856180145952699
0.0019402613990799988,0.0022325404988122054,-0.0004663769210936429
0.015475149384597733,0.009792734460698992,0.00750866842960765
0.019684264839053535,0.006828094642471096,0.006309413489652569
0.014027776969961443,-0.0004131649624425185,0.0023318846054682144
0.005108833441932416,-0.006393184155689497,-0.0011992549399550817
-0.0069395639555804795,-0.016613580595057062,-0.01252555159508641
-0.02675683058408708,-0.036264286089472283,-0.03489165622524868
-0.04817011868603045,-0.05553806916201012,-0.05469268778939592
-0.056431876901467865,-0.06380861691897352,-0.062421219624662
-0.0437575887300582,-0.05914057769418436,-0.05793067612727464
-0.0178770052294266,-0.03912744679411781,-0.03743007918148694
0.0021123813619016115,-0.008603979130162623,-0.0032979510848764747
0.007025623936991286,0.015047902842643308,0.03053436327674522
0.0030355702533993527,0.02259359978830404,0.05084174692665127
-0.0021358522659227406,0.022629842328869172,0.05386653438631576
0.0028869211945988693,0.03096562665884981,0.05226752779970898
0.025145161841302888,0.05554531767012315,0.06178161699001929
0.04932801661773949,0.08056716767629112,0.068164318281558
0.05873984913021222,0.07616732325168395,0.042860039048505785
0.059882099792573834,0.038540317636962654,-0.0012792052692854206
0.05927185628802448,0.0017106479146742873,-0.02301236979224918
0.04412529955972255,-0.010865513661426934,-0.017662360254560677
0.0028634502905777403,-0.018005294152758176,-0.012365650936425731
-0.05659617322961577,-0.03733706529020023,-0.014844111145666234
-0.10197325433713188,-0.052689405473590654,-0.0117526984115598
-0.09945404397219736,-0.04843453121124402,-0.003224663282990331
-0.06434939519126205,-0.03483632999120604,-0.004010841521405329
-0.04142614559729271,-0.025435014968610482,-0.012112474893546325
-0.037123146526752394,-0.01797630012030607,-0.0127987152202984
-0.02987846081889724,-0.009713000871455699,-0.00526339668091397
-0.014379840530278378,-0.006472917744932791,0.0017389196629348685
-0.00024253267488499986,-0.008292293281302477,0.0027183111972315186
0.008081814617942091,-0.007799394729616666,-0.00031980131732135516
0.017571883477151926,0.0005073955679118649,0.0038975785548540157
0.03330521280598207,0.015381334215842533,0.019847669256256605
0.048037116896577386,0.028733086160037606,0.03335261238563966
0.054655911830535774,0.03463337176404129,0.03256643414722466
0.052911241298298516,0.03161074388090918,0.02211292858728287
0.04289698891595013,0.02175277284719295,0.011825986213445945
0.028039906670575467,0.01433030053945367,0.008088308317252607
0.01979379572448547,0.018121270282566604,0.012931965769182298
0.02574758171117853,0.031067105772432185,0.022665918365151045
0.03052782249681514,0.036909403311531655,0.026310320877125655
0.009255359818998542,0.020013130900066557,0.0164564427871614
-0.026537768813223207,-0.004436086965172305,0.005476597559128207
-0.034181459889437556,-0.00653815431795003,0.010966520173144803
-0.00858252723705951,0.009502794136177927,0.025997182087248494
0.011508566605026927,0.016425119384118367,0.03062763866096395
0.013182824425200797,0.00832853582186761,0.023212245615575028
0.018416836021912568,0.0010002941195976765,0.015143924880655005
0.030261818917909012,0.0011380157737451828,0.008568010293234639
0.026835066930824176,-0.002036830779760486,-0.0014191183456135133
0.004443824494667094,-0.012336960808371343,-0.014017957742586067
-0.014434605972994346,-0.017091982130516818,-0.023905148469771296
-0.017055523588687085,-0.008777943324875262,-0.025537467693599047
-0.015138733093628216,0.00016671568659961276,-0.020407321561568974
-0.019684264839053535,-0.004450583981398358,-0.017948848934661057
-0.021616702603459825,-0.01437379158813183,-0.018801652447518004
-0.011015677620583218,-0.014917429696608827,-0.01642979267738462
0.004130879107718707,-0.0066758759720975365,-0.009254250619986713
0.012376990053808701,0.0037329816782087203,0.0039042410822982105
0.00982648515017935,0.009836225509377152,0.017728985529002626
-0.00046941808042258036,0.00580605499853434,0.017322571354906738
-0.00478024078563661,-0.0031241069967144824,0.0037709905334143124
0.010147254171801446,-0.002486238282768138,-9.993791166292347e-05
0.03822627901574546,0.0134677280740035,0.018028799263991396
0.062229190194686736,0.03732256827397418,0.04559167530062569
0.06981029219351141,0.055429341540314724,0.06441331533047628
0.05855208189804319,0.05493644298862892,0.0650395929102306
0.038875640693663366,0.037554520533591026,0.04769703397299128
0.023267489519612567,0.018534435245009123,0.02327220836257278
0.01626533648664241,0.007038301377748869,0.007748519417598667
0.017986536114858537,0.004240377246120585,0.011646097972452682
0.021859235278344824,0.009792734460698992,0.030980752615506278
0.0189253722757037,0.016243906681292702,0.04703078122857179
0.01096873581254096,0.016845532854673915,0.046237940462712596
0.006243260469620319,0.014808702074913428,0.03323268689164415
0.007283803881223705,0.014214324409645243,0.017562422342897753
0.011234739391447089,0.01894760020745164,0.004450568332722192
0.016077569254473376,0.03087864456149349,-0.0007528656011940235
0.01960602849231644,0.04244726350988401,0.0024051724073543583
0.017329350802266923,0.04430288158681883,0.00527672173580236
0.006861327608843382,0.033778047806704146,0.0010326917538502093
-0.0107574976763508,0.015229115545468973,-0.010520130834383745
-0.03051999886214143,-0.002587717396350511,-0.026150420218464976
-0.0369666738332782,-0.008386523886771824,-0.040314953564823335
-0.014129484220719668,0.004370850392155064,-0.045165273544197214
0.028337204788176435,0.026377321023303948,-0.035577896552000755
0.059835157984531574,0.04287492548855258,-0.01418452092869094
0.06275337371782529,0.05111647921306387,0.012638814561637722
0.04370282328734223,0.05310257043603318,0.035731134683217244
0.01980161935915918,0.04654991910185709,0.048063472982422
0.010546259540160639,0.03916368933468294,0.05533895295148283
0.026569063351918047,0.040794603660113934,0.05875682953035481
0.04919501482828642,0.03619180100834202,0.041081144220905745
0.04516584297132594,0.008959156027700928,0.0027183111972315186
0.007487218382740157,-0.031364294605066276,-0.030687601407961704
-0.0460186191507603,-0.07356510883910738,-0.05831044019159375
-0.09854650235004704,-0.11314196313623284,-0.0952008546501009
-0.1376646757185954,-0.13882342738068623,-0.12352992134281761
-0.15515049921433652,-0.14418732338432594,-0.12025862036771792
-0.1522401071157165,-0.13869295423465175,-0.10282944857370406
-0.13793067929750152,-0.1332928156904469,-0.10195665747851454
-0.12005367406807492,-0.12500052240914442,-0.11378930621940467
-0.10101094727226557,-0.10748812680807206,-0.11372268094496273
-0.08563750513842608,-0.09072232754264144,-0.10152359319464187
-0.07768869230993705,-0.08460458669524695,-0.09185626587311507
-0.0675414381381356,-0.07856657943709576,-0.08139609778572908
-0.04824053139809384,-0.06309101461578388,-0.06025589820529866
-0.027852139438406434,-0.04279519189930929,-0.03087415217639916
-0.014990084034827732,-0.024268005162413196,-0.0034312016337603728
-0.014411135068973216,-0.012706634722135702,0.013918019830923143
-0.021139460888363534,-0.00770516412414732,0.02230614188316452
-0.022031355241166437,-0.002471741266542085,0.026783360325663492
-0.014661491378531927,0.007016555853409789,0.025111065937170572
-0.0030746884267679013,0.020701739170804086,0.015150587408099199
0.00786275284707822,0.03537996809968304,0.007228842276951465
0.010616672252224025,0.04553512796603336,0.010460168087385991
0.005914667813324512,0.04475228908982648,0.015836827734851275
0.0016899050895212893,0.03010305419339964,0.013011916098512637
0.0002660035789061289,0.009082380665622381,0.008448084799239131
-0.00020341450151645148,-0.0064366752043676576,0.010093729077955272
0.005367013386164836,-0.00973474639579478,0.014397721806905175
0.02173405712356547,-0.003269077158975015,0.016902832125922456
0.03736567920163739,0.005856794555325526,0.018235337614761437
0.03799939361020788,0.01316329073325638,0.016056691140509706
0.028024259401228047,0.013351751944195073,0.005163458769251047
0.02032580288229773,0.007147028999444268,-0.007195529639730491
0.013417533465412088,0.0015729262605267812,-0.008281521613134259
0.0024722685568922564,-0.0026891965099328837,-0.0009993791166292348
0.00046159444574887066,-0.003066118931810269,0.007155554475065321
0.01713375993542418,0.004979725073649303,0.01679623168681534
0.038766109808231426,0.015229115545468973,0.02561075549548519
0.047896291472450614,0.01981017267290181,0.029261820534903994
0.043147345225508844,0.02330395358338065,0.03225329535734751
0.031169360540059334,0.031958672270334464,0.03628412446108542
0.018064772461595633,0.03927241695637834,0.03390560216350784
0.01631227829468467,0.041548448503868705,0.028215803726165396
0.035926130421674814,0.04790539011899307,0.029721534928553443
0.062166601117297056,0.058647679142498556,0.03510485710346292
0.07042053569806077,0.06250388545862873,0.03540467083845169
0.06578112033655092,0.05833599329363841,0.031533742393374455
0.06606277118480447,0.05213851885700063,0.02679002285310769
0.05894326363172867,0.0413817328172691,0.018695052008410887
0.032788852917517236,0.02621785384481736,0.006682515026527483
0.008879825354660479,0.018266240444827136,-0.0022052965840285116
-0.0031216302348101594,0.01896209722367769,-0.0050302082203671486
-0.01863589779277644,0.01322852730627362,-0.00890779919288858
-0.03217078577829417,-0.0022035464663600988,-0.01342499280005272
-0.02195311889442934,-0.011024980839913521,-0.010180341934729805
0.0028321557518829013,-0.007886376826972985,-0.004830332397041301
0.009857779688874187,-0.007342738718495987,-0.008681273259785953
-0.008300876388805962,-0.014823199091139482,-0.015970078283735173
-0.03129453869483869,-0.02249212067472167,-0.017169333223690252
-0.04371064692201594,-0.028196696559673634,-0.01572356476829996
-0.044539952197429164,-0.032270358119194605,-0.0172359584981322
-0.03997877318265643,-0.034481153093667734,-0.021719839468075368
-0.03337562551804546,-0.03569165394854318,-0.023332171109570535
-0.02174188075823918,-0.033074942519740566,-0.015443738615643774
-0.008887648989334187,-0.025224808233332712,-0.002245271748693681
-0.005061891633890158,-0.015917723816206503,0.0077751695273754464
-0.01217357555229225,-0.009821728493151098,0.011379596874684888
-0.022532067860283857,-0.008538742557145384,0.007148891947621126
-0.029455984546516916,-0.011902050321589745,-0.0033978889965393983
-0.032648027493390464,-0.016599083578831008,-0.012538876649974799
-0.027140188683098854,-0.010829271120861801,-0.009634014684305824
-0.003090335696115321,0.011938292862154878,0.005569872943346935
0.03054346976616256,0.040765609627661833,0.02067382265933677
0.04790411510712433,0.05833599329363841,0.028595567790484503
0.0433507597270253,0.056813806589902816,0.0318735312930284
0.037154441065447234,0.04665864672355249,0.034218740953385
0.041692149176198845,0.043193859845525755,0.03757665478525923
0.05043897274140626,0.04666589523166552,0.04176072202021362
0.05567298433811803,0.04844902822747007,0.04589148903561446
0.058489492820653514,0.04575258320942416,0.04687088056991111
0.062197895655991896,0.0423892754449798,0.041534196087110994
0.06471710602092641,0.042048595563667544,0.034332003919936314
0.06159547578611625,0.03991028567032469,0.028708830757035817
0.052160172369622386,0.029008529468332617,0.022339454520385493
0.03889128796301078,0.019092570369712174,0.021280112656758506
0.02460533104881692,0.023253214026589464,0.029754847565774418
0.010632319521571445,0.028348915230047195,0.03377901414206814
-0.003129453869483869,0.013322757911742967,0.021973015510954777
-0.013918246084529507,-0.014257815458323404,0.0037110277864165586
-0.018072596096269343,-0.0319151812216563,-0.0043306428387266845
-0.01790047613344773,-0.033480858974070056,0.0026983236148989337
-0.0174701762263937,-0.02594241053652235,0.017702335419225845
-0.010061194190390638,-0.014272312474549456,0.033505850516856145
0.007737574692298866,-0.0023267711042815518,0.04262685058795896
0.014411135068973216,0.002471741266542085,0.03822958247479033
0.0006258907738967737,-0.0014497016226053283,0.027449613070082982
-0.0069708584942753185,-0.0031748465535056686,0.022419404849715833
0.003152924773504998,0.005110198219683782,0.018155387285431097
0.007495042017413866,0.013772165414750619,0.005310034373023334
-0.012384813688482411,0.007067295410200975,-0.01481079850844526
-0.04297522526268723,-0.010517585272001657,-0.0382628951120113
-0.055313097143127384,-0.015722014097154784,-0.05384654680398317
-0.047458167930722876,-0.00914761723863962,-0.05182780098839212
-0.03960323871831836,-0.01517112748056476,-0.0398285890613971
-0.031701367697871595,-0.02810246595420429,-0.021126874525542023
-0.011438153892963541,-0.01944774726725048,0.008021683042810658
0.01599150927306257,0.008705458243744996,0.03489831875269288
0.03515159058897756,0.030566958712633346,0.045858176398393485
0.04436783223460755,0.03825037731244159,0.04659771694469912
0.052973830375688195,0.038678039291110154,0.04460562123888485
0.05963174348301512,0.03130630654016206,0.03486500611547191
0.054608970022493514,0.015743759621493866,0.014397721806905175
0.041965976389778684,0.0076616730754691595,-0.001772232300155843
0.03860181348008353,0.022115198252844283,0.0014724185651670725
0.04723128252518529,0.047441485599759366,0.016003390920956147
0.054624617291840934,0.06290980191295822,0.028049240540060524
0.05683870590450077,0.06943345921468219,0.03785648093791542
0.06801085621855818,0.0860325427935132,0.05426628603296745
0.09794408248017139,0.12128203774716176,0.08243545206702348
0.12720447615984556,0.1544077198236935,0.11275661446555446
0.1289960885001251,0.15616910729515898,0.1271943114371248
0.10818522026805735,0.12505851047404865,0.11951907982141229
0.08935373160843817,0.08647470178840783,0.09865204386619386
0.0787057648175193,0.06101794129545827,0.0770654549470024
0.06290202277662577,0.04712255124278619,0.06278099610664853
0.03270279293610643,0.029929089998687,0.05025544451156212
-0.009286654357693382,-0.00023195225961685252,0.02642358384367697
-0.053693604765669485,-0.04236752992064072,-0.011939249179997257
-0.10450811197141381,-0.09981195671637685,-0.06619221015807632
-0.17870746321687633,-0.18050959753870244,-0.1405260288529588
-0.2586102441394732,-0.26558533726129613,-0.21963687972532903
-0.29909755357592077,-0.3152593633598677,-0.27291044916911145
-0.2900534318931124,-0.3172672001071761,-0.2859023776852915
-0.2520775091869256,-0.28778751761149673,-0.2643291138209884
-0.1994557423715544,-0.23685225110125852,-0.2203164575246369
-0.1455274285656736,-0.17029644960744791,-0.16837539356969347
-0.1055564790176909,-0.1079085402786276,-0.12260383002807453
-0.0787840011642564,-0.06844041360319755,-0.09158310224790307
-0.054335142808913675,-0.04840553717879191,-0.0752132723175162
-0.031458835022986596,-0.033074942519740566,-0.06536605675499615
-0.015357794864492087,-0.018548932261235176,-0.05389318449609253
-0.005116657076606126,-0.010184153898802431,-0.03914901126208922
0.0001642963281479031,-0.006567148350402137,-0.024258262424313625
-0.0042873518011929,-0.0031023614723754023,-0.010786631932151541
-0.016335749198705795,-0.0015221867037355946,0.0011859298850666919
-0.02271983509245289,-0.0031386040129405355,0.008741236006783707
-0.014661491378531927,-0.004472329505737438,0.009993791166292348
0.0015647269347419345,-0.0023702621529597115,0.004737057012822573
0.010726203137655961,0.0019136061418390333,-0.007695219198045108
0.0025661521729767726,0.0018338725525957403,-0.024431488137862695
-0.01793959430681628,-0.008009601464894439,-0.04050150433326079
-0.03463523070051272,-0.02233265349623508,-0.05196771406472021
-0.0427092216837811,-0.03524224644553553,-0.058277127554372775
-0.049155896654917874,-0.04694858704807355,-0.06224133138366874
-0.049179367558939,-0.04906515141707733,-0.05818385217015405
-0.0401195986067832,-0.035872866651368844,-0.03903574829553791
-0.038273220823787715,-0.024333241735430434,-0.020367346396903806
-0.046245504556297876,-0.02552924557407983,-0.01875501475540864
-0.03964235689168691,-0.02162229970115847,-0.020573884747673847
-0.014395487799625798,-0.0019933397310823264,-0.01119304610624743
8.605998141080639e-05,0.013235775814386647,-0.003024787459664484
-0.006556205856568706,0.008386523886771824,-0.008887811610555995
-0.013574006158886282,-0.002993633850680003,-0.017915536297440082
-0.0052731297700803195,-0.00025369778395593245,-0.010253629736615949
0.017744003439973538,0.019339019645555077,0.01623657938150297
0.04264663260639143,0.0389897251399703,0.040294965982490744
0.053302423031984,0.04205584407178057,0.044072619043349255
0.049523607484582226,0.0327850021952195,0.03485168106058351
0.04588561736130723,0.02727613602931925,0.03018124932220289
0.051714225193220935,0.03251680739503751,0.036817126656621006
0.06445110244202028,0.04583231679866745,0.051148223189084234
0.07541201461988753,0.06056853379245061,0.06578579598398043
0.07623349626062705,0.06717192468341789,0.07288805023949219
0.06717372730847125,0.06155433089582224,0.07086264189645694
0.05331024666665771,0.047818408021636755,0.06173497929790993
0.03708402835338385,0.033575089579539405,0.04687088056991111
0.026960245085603532,0.0293564578577579,0.03475840567636478
0.03176395677526127,0.0392071803833611,0.03446525446882021
0.04370282328734223,0.05204428825153128,0.04176738454765782
0.047685053336260455,0.05144266207815007,0.04401931882379569
0.035761834093526915,0.03374905377425204,0.03354582568152131
0.01360530069758112,0.013619946744377059,0.018235337614761437
-0.002128028631249031,0.004718778781580344,0.012205750277765054
-0.004944537113784513,0.00189910912561298,0.013738131589929882
-0.004115231838371288,-0.0044143414408332245,0.012252387969874419
-0.006767443992758867,-0.008618476146388677,0.00957405193730807
-0.008762470834554833,-0.0024137532016378716,0.012872003022184544
-0.0030433938880730627,0.007937116383764172,0.017469146958679023
0.007604572902845802,0.012982078030430715,0.01770899794667004
0.016899050895212892,0.015069648366982387,0.01980103156414724
0.028493677481650628,0.021375850425315566,0.02649687164556311
0.04194250548575756,0.0303640004854686,0.02985478547743734
0.046276799094992715,0.03493056059667538,0.027089836588096456
0.041645207368156585,0.02945793697134027,0.021086899360876855
0.03604348494178046,0.011829565240459479,0.010393542812944042
0.03058258793953111,-0.005849546047212499,0.001585681531718386
0.027813021265037884,-0.0064076811719155505,0.009034387214328282
0.03169354406319788,0.006335196090785284,0.026810010435440273
0.039564120544949816,0.017055739589951685,0.03646401270207868
0.04964878563936158,0.025391523919932324,0.041054494111128964
0.061478121266010606,0.03870703332356226,0.05140139923196364
0.06971640857742689,0.05450153250184731,0.06234126929533167
0.07117160462673688,0.06858538376545809,0.07140230661943672
0.06775267627432577,0.07990030492989267,0.08146272306017102
0.06467016421288416,0.08503949718202855,0.08785874940659813
0.06866021789647608,0.08590931815559175,0.0874989729246116
0.07917518289794188,0.08673564808047679,0.08032343086721369
0.08681105033948253,0.08190814167720105,0.06645871125584411
0.08741347020935818,0.07227487439498864,0.05564542921391579
0.08464390353486495,0.07194869152990244,0.0609887762241601
0.07403505491731463,0.07879128318859958,0.07778500791097544
0.055563453452686096,0.0783853667342701,0.09081024906437647
0.049781787428814644,0.07331141105515145,0.09678653618181929
0.06041410695038609,0.06654130447758456,0.09079026148204389
0.05871637822619109,0.04291841653723074,0.05605184338801168
0.0270150105283195,-0.0033198167157662017,-0.0020453959253678338
-0.02456621287544837,-0.05412461007996993,-0.05345345768477567
-0.07381599314645076,-0.08762721457837906,-0.08322163030543848
-0.09951663304958704,-0.09170812464601306,-0.09210944191599447
-0.09363325977495736,-0.06894056066299638,-0.08011689251644366
-0.06068793416396593,-0.03187169017297814,-0.051881101207945673
-0.02239906607083079,0.0028776577208715765,-0.020907011119883592
-0.011273857564815639,0.014257815458323404,-0.004290667674061515
-0.02836067569219756,-0.0035662659916091076,-0.008461409854127522
-0.04485289758437755,-0.03375630228236507,-0.02777607691484853
-0.05069715268563868,-0.06130788161997933,-0.0562916943760027
-0.05579816249289738,-0.07857382794520879,-0.08146272306017102
-0.05780101296936706,-0.07695016212789083,-0.08477399919993589
-0.052864299490256256,-0.05940152398625333,-0.06703835114348906
-0.05889632182368641,-0.04922461859556392,-0.05234081560159512
-0.08282099665589059,-0.06193125331769962,-0.053306882081003384
-0.09393838152723204,-0.07839986375049615,-0.05132144890263331
-0.07034229935132366,-0.0711223616050174,-0.028215803726165396
-0.034337932582911755,-0.04359252779174222,0.0031647005359925766
-0.015389089403186926,-0.019317274121215998,0.019541192993823637
-0.017657943458562732,-0.009857971033716231,0.017089382894359916
-0.029901931722918367,-0.01122069055896524,0.009640677211750019
-0.0317091913325453,-0.012220984678562917,0.012245725442430223
-0.010483670462770961,-0.0038852003485822795,0.024764614510072436
0.013816538833771281,0.009328829941465288,0.030660951298184923
0.01747799986106741,0.015424825264520693,0.016996107510141186
0.003278102928284353,0.007436969323965334,-0.014311108950130642
-0.017266761724877247,-0.00964776429843846,-0.048436574519296914
-0.032569791146653364,-0.021136649657585684,-0.0694768361880644
-0.03693537929458336,-0.026660012839711988,-0.08337486843665497
-0.04217721452596884,-0.0420920866123457,-0.10544115933182846
-0.059068441786508025,-0.06764307771076461,-0.12756075044655552
-0.07969154278640672,-0.08542366811201897,-0.12800713978531658
-0.08697534666763043,-0.08258950143982555,-0.10027103803513322
-0.07387858222384043,-0.06074249798716325,-0.05893005524390388
-0.051072687149976745,-0.03032050943679044,-0.02392513605210388
-0.03238202391448433,-0.003761975710660827,-0.002485122736684697
-0.018487248733975958,0.01059731886124495,0.0124056261010909
-0.0023001485940706435,0.018229997904262003,0.030081311410539966
0.015944567465020314,0.02905202051701078,0.048969576714832506
0.031059829654627398,0.04011324389748943,0.05829045260926117
0.04385929598081642,0.04677462285336092,0.05699125975764316
0.05546174620192787,0.05134843147268073,0.05466603767961914
0.061321648572536414,0.05385641527978794,0.05247406615047902
0.06251084104294029,0.05688629167103308,0.04725064463423022
0.06499093323450625,0.06496837821705778,0.04459895871144065
0.057613245737198025,0.06264160711277623,0.037330141269824015
0.021874882547692244,0.027442851715918863,0.0027183111972315186
-0.027609606763521435,-0.023593893907901717,-0.048536512430959834
-0.05578251522354997,-0.05048585900723056,-0.07715206780377692
-0.058810261842275606,-0.05030464630440489,-0.07552641110739337
-0.05715947492612287,-0.04650642805317893,-0.06450659071469501
-0.053138126703836094,-0.04276619786685718,-0.05104162274997712
-0.03682584840915143,-0.02452170294636913,-0.02926848306234819
-0.014481547781036604,0.008060341021685624,-0.003417876578871983
-0.0005554780618333867,0.029421694430775136,0.010733331712597981
0.0025896230769979016,0.025224808233332712,0.006929028541962695
0.004678533534878384,0.016214912648840597,0.0023918473524659686
0.013018528097052895,0.0208684548574037,0.012139125003323105
0.020396215594361115,0.02596415606086143,0.022052965840285113
0.015639445712745635,0.014620240863974735,0.013864719611369584
0.004522060841404191,-0.0059002856040036855,-0.0022119591114727064
0.00691609305155935,-0.014576749815296575,-0.003271300975099695
0.025536343574988372,-0.006001764717586059,0.009027724686884087
0.030410467976709498,-0.0030008823587930294,0.011439559621682641
-0.0034032810830637076,-0.02634832699085184,-0.00920761292787735
-0.05188634515604255,-0.06016261733812112,-0.04017504048849524
-0.06807344529594786,-0.06921600397129139,-0.04985569286491043
-0.04425830134917562,-0.04557137050659849,-0.02605714483424625
-0.01432507508756241,-0.01504065433453028,0.002944837130334145
-0.0035910483152327395,-0.0005073955679118649,0.011699398192006242
-0.0065092640485264475,0.0020875703365516728,0.011486197313792005
-0.007925341924467899,0.006509160285497924,0.01856180145952699
-0.0025661521729767726,0.010394360634080203,0.025171028684168328
0.006806562166127415,0.008067589529798651,0.02335215869190312
0.013464475273454346,0.005813303506647366,0.019088141127618384
0.013018528097052895,0.007879128318859958,0.017702335419225845
0.014911847688090635,0.014308555015114589,0.02159991397407986
0.03059041157420482,0.025065341054846126,0.028935356690138445
0.05595463518637158,0.03846783255583239,0.037036990062279444
0.07887788478034091,0.052080530792096416,0.04577822606906315
0.08749170655609527,0.05616144085973042,0.04501869794042493
0.07904218110848882,0.04648468252883985,0.028802106141254547
0.06434939519126205,0.035292986002326714,0.010700019075377007
0.04962531473534045,0.029298469792853683,5.9962746997754085e-05
0.03354774548086707,0.023963567821666077,-0.0061628378858802815
0.016789520009780956,0.01627290071374481,-0.010959857645700607
-0.002167146804617579,0.00757469097811284,-0.016762919049594364
-0.018768899582229503,0.00044940750300765173,-0.02223951660872257
-0.018792370486250633,-0.004015673494616759,-0.019427930027272323
-0.004529884476077901,-0.006074249798716325,-0.007828469746929006
0.0021827940739649987,-0.008147323119041944,-0.0004397268113168633
-0.0038492282594651587,-0.012568913067988196,-0.004010841521405329
-0.00910671076019806,-0.01603369994601493,-0.007648581505935744
-0.010288079595928219,-0.011670098061972892,0.0004797019759820327
-0.01313588261715854,-0.0023340196123945783,0.013611543568490177
-0.018221245155069826,0.0003551768975383054,0.016909494653366653
-0.01938696672145257,-0.004602802651771917,0.013025241153401026
-0.013550535254865152,-0.009104126189961462,0.012385638518758317
-0.0069395639555804795,-0.008640221670727756,0.01380475686437183
-0.003317221101652901,-0.0031241069967144824,0.01479747345355687
-0.001768141436258386,-0.0004276619786685718,0.01573688982318835
-0.005445249732901932,-0.007516702913208627,0.014670885432117167
-0.008934590797376445,-0.015359588691503452,0.013418330272608525
0.0007041271206338705,-0.014402785620583936,0.013718144007597296
0.01647657462283257,-0.010568324828792842,0.013031903680845221
0.0220000607024716,-0.006987561820957682,0.015517026417529918
0.023588258541234662,0.007103537950766108,0.027769414387404337
0.03511247241560901,0.033132930584644775,0.0450586731050901
0.05274694497015061,0.054523278026186395,0.056045180860567485
0.06556205856568706,0.058205520147603926,0.05270725461102584
0.07084301197044109,0.04939133428216353,0.03858269642933266
0.07966807188238559,0.04588305635545864,0.030081311410539966
0.10048676374912703,0.05636439908689516,0.036810464129176816
0.113395760960748,0.06959292639316879,0.044805497062210695
0.0892207298189851,0.06860712928979716,0.03492496886246966
0.022555538764304987,0.0419833589906503,0.0052034339339162156
-0.06027328152625932,-0.008430014935449984,-0.03189351887536098
-0.10739503316601268,-0.05149340163494126,-0.05529897778681766
-0.09058204225221059,-0.05291410922509448,-0.05396647229797868
-0.04598732461206546,-0.027457348732144917,-0.043592917067367225
-0.02056833555718273,-0.01402586319870655,-0.03954876290874092
-0.013472298908128056,-0.016410622367892317,-0.0344785795237086
-0.0022375595166809663,-0.011981783910833039,-0.016709618830040806
0.0117276283758908,0.006842591658697149,0.012385638518758317
0.013433180734759508,0.025493003033514698,0.04027497840015816
0.006298025912336286,0.03132080355638812,0.05322693175167304
0.006556205856568706,0.025623476179549177,0.048116773201975556
0.018416836021912568,0.01691801793580418,0.03892914785643079
0.02559110901770434,0.01219199064611081,0.03976196378695515
0.01077314494569822,0.006741112545114777,0.038755922142881725
-0.019207023123957247,-0.00837202687054577,0.018515163767417624
-0.038992995213769005,-0.025587233638984044,-0.007795157109708031
-0.03249937843458998,-0.026986195704798186,-0.014657560377228776
-0.012369166419134991,-0.011916547337815797,-0.002438485044575333
-0.006055493237451286,-0.0026746994937068306,0.0034378641612045676
-0.023916851197530467,-0.015163878972451734,-0.012832027857519374
-0.05213670146560126,-0.03800392803659868,-0.04023500323549299
-0.06848809793365447,-0.05214576736511366,-0.0600760099643054
-0.06432592428724093,-0.054805969842594435,-0.06787782960145762
-0.055547806183338676,-0.05590774307577449,-0.07324782672147871
-0.058106134721641736,-0.06130788161997933,-0.07965051559535001
-0.06418509886311416,-0.06325048179427047,-0.07687224165112073
-0.060711405067987056,-0.05363896003639714,-0.061428503035476964
-0.049140249385570454,-0.04112078652520013,-0.04619130277060323
-0.03685714294784627,-0.03646724431663703,-0.038702621923328163
-0.02717148322179369,-0.03301695445483635,-0.03054768833163361
-0.016609576412285634,-0.02052777497609145,-0.017535772233120972
-0.0022375595166809663,-0.005878540079664606,-0.007955057768368709
0.00980301424615822,0.0003551768975383054,-0.005196771406472021
0.01649222189217999,0.004305613819137825,-0.0005396647229797867
0.024542741971427244,0.014359294571905776,0.010959857645700607
0.033461685499456266,0.02497111044937678,0.022572642980932315
0.033492980038151106,0.029008529468332617,0.028628880427705478
0.025246869092061114,0.02734137260233649,0.02892869416269425
0.020255390170234342,0.02380410064317949,0.023465421658454434
0.02744531043537353,0.024398478308447675,0.019248041786279063
0.04352287968984691,0.030617698269424534,0.02517769121161252
0.05422561192348174,0.03577138753778648,0.03378567666951233
0.057386360331660446,0.03946812667543006,0.03561120918922173
0.06272990281380415,0.04793438415144518,0.037356791379600796
0.06337144085704835,0.05566129379993158,0.039395524777524435
0.046167268209560776,0.05071056275873438,0.031087353054613395
0.0215149953527016,0.037134107063035486,0.019847669256256605
0.011633744759806284,0.031415034161857466,0.022572642980932315
0.02003632839937047,0.0420630925798936,0.037263515995382065
0.02935427729575869,0.05748791784441429,0.04629124068226616
0.02367431852264547,0.05567579081615763,0.03745672929126372
0.0023001485940706435,0.03223411557862947,0.018708377063299274
-0.02455056560610095,0.0025152323152202445,0.004870307561706471
-0.04726257706388013,-0.024246259638074114,-0.006109537666326722
-0.0643024533832198,-0.04768793487560227,-0.022526005288822953
-0.0741680567067677,-0.06238066082070728,-0.03836283302367423
-0.07703933063201915,-0.0699770973231592,-0.050601895938660255
-0.08171786416689752,-0.08469881730071631,-0.06950348629784119
