channel1,channel2,channel3
0.0408084119426168,0.05434149882691128,0.04613737127855055
0.052683134387721604,0.06189968565240144,0.053164070532667675
0.05714678901099741,0.05830464675754464,0.049528100205423455
0.052948351534620276,0.048547366991051645,0.042597364977538583
0.05543038370182297,0.05158785201382947,0.046505233379107516
0.06628427033622344,0.06659905165458793,0.058639351362696726
0.07200395333443448,0.07285690526278947,0.06075055993980628
0.07093808064972848,0.06797109442430056,0.05283352777564548
0.07316990796136638,0.06608752351396335,0.05416103013852496
0.07831411979177841,0.07034707092794928,0.06594861136071993
0.07585210401302091,0.07366005224993832,0.07333784138060334
0.06417754545236794,0.07010803908653593,0.07373236015511371
0.0508015938738744,0.05881617489816921,0.0726607618621869
0.037720884024947325,0.04426391639292439,0.06984048575791682
0.02334411302419465,0.032823852462881394,0.06340556466556525
0.011369308636863933,0.029195349110226722,0.05644284142893629
0.003567921240353866,0.031796015544803984,0.050215842393421264
-0.004403605457940256,0.03145659032999703,0.0404968190700104
-0.010638710458614755,0.0239796743305874,0.027136494084564627
-0.011524435647314101,0.013653498781530625,0.01298180021530744
-0.016213274640598213,-0.00036810903577656095,-0.005166063412169573
-0.026877005584769447,-0.018797464008745945,-0.026672667957775408
-0.03008463183311002,-0.03186294446039972,-0.0399157035778262
-0.02383951863821293,-0.033005516662355544,-0.03708476480397477
-0.017349204684862347,-0.029195349110226722,-0.02603823911768441
-0.014201627601857324,-0.02971165788767956,-0.021970430672395055
-0.01286553367314136,-0.03384212810730227,-0.026821945331914468
-0.01332591060738057,-0.037456289549472145,-0.030724482398692722
-0.01955601151094377,-0.04336515666921019,-0.032515810888361425
-0.02745247675256846,-0.05047874426967152,-0.03549602703635192
-0.022878731992844147,-0.04721356931596514,-0.033731355220636625
-0.004148396505264173,-0.02774203551443355,-0.020696241657422374
0.01440679558342045,-0.0003203026674938907,0.00102894761460137
0.02720227189700367,0.023587662110669504,0.02396434988410963
0.04098355534151215,0.038445881372923416,0.03971311285578034
0.05443456837667512,0.04121865073331829,0.04211221351158664
0.06343193498278486,0.03411940504334176,0.035229460296817894
0.07104817078617699,0.02918578783657019,0.03154017662166687
0.06825588459807397,0.029840735082042772,0.034168524673472436
0.04079840374839421,0.02494058233306907,0.034653676139424376
0.0017814585716212853,0.01261610058979668,0.03010604756297376
-0.0196410811618358,0.0084378240018913,0.027253783449959604
-0.012950603324033388,0.023472926826791096,0.032446503536082576
0.009407702569236,0.0456981074414045,0.04147778467149564
0.029238939421301038,0.05503469116700999,0.04453797084134634
0.038176256862075236,0.048628637817132184,0.04214420152033072
0.04381087020939425,0.039564550390737904,0.040571457757079925
0.05783735441235622,0.039865730510918726,0.03917464804192159
0.07322495302959063,0.04847087680179937,0.0352827736447247
0.06523340994285133,0.04895372112145434,0.0267579693144263
0.028828603458174788,0.029769025529618767,0.011648966517637272
-0.006960699081812381,0.0029878980176668906,-0.0032361202179431686
-0.02228324443659995,-0.015192863840232607,-0.009009955796250338
-0.029173886158854193,-0.023807571404769787,-0.00680811452769922
-0.0381061995025171,-0.026981914258739092,-0.00010129536102293279
-0.0424547598922331,-0.02561465212585472,0.006920072558303514
-0.03811120359962839,-0.02053761581423514,0.007767754790021742
-0.02971933274398543,-0.014714800157405904,0.0009223209187877565
-0.022563473874832516,-0.012525268490059607,-0.012251407348984188
-0.020201540038300922,-0.018137736126445096,-0.028543966469304325
-0.02009645399896371,-0.028330053844310393,-0.038886755963224835
-0.011169144752412104,-0.02897543981612644,-0.03327819176342876
0.012970619712478572,-0.010761213500429074,-0.0121927626662867
0.04464155032986934,0.020485028809124204,0.015540840914834163
0.06525342633129652,0.04921187551018076,0.04250140095130633
0.060974923301138656,0.05930858049148072,0.05929510554195045
0.043955989025621825,0.05081816948447848,0.05998817906473894
0.028628439573722957,0.03661967810452541,0.05122346466885991
0.0011059054615963596,0.020963092491950906,0.04037952970461542
-0.0391620639930005,0.0042165216825315165,0.02874122585655951
-0.05709174394277316,-0.006879336395876249,0.018121206953523608
-0.040993563535734745,-0.00986723441354314,0.010310801485176423
-0.020872089051214553,-0.010211440265178366,0.003054854835060026
-0.01367619740517127,-0.007945418408579796,-0.0021485279206443116
-0.005229281481304054,0.0065303499074127564,0.0068187771972805815
0.012915574644254317,0.0324031564219939,0.0339019579339384
0.03247158615519809,0.050971149862983026,0.06055863188734177
0.05066648325186942,0.05343795846636881,0.07106669275977338
0.06697983983469355,0.04814579349747721,0.06751602378918005
0.06700986441736133,0.03693998077201931,0.047683458367847945
0.04005779737592244,0.014714800157405904,0.005000792033658471
0.001115913655818951,-0.01574741771231158,-0.04748619898059276
-0.023799485861322564,-0.04162500486372099,-0.07995402785583806
-0.02513057569292723,-0.049197533599695954,-0.07550769464041038
-0.018294979038897242,-0.04227517147236531,-0.05107951862951153
-0.026226472960301,-0.042069604088749823,-0.038172357101273625
-0.04732374638152386,-0.05528328428207988,-0.04370628261400016
-0.05521020342892596,-0.0609483389235763,-0.04536965906869253
-0.04368076368450056,-0.04844697361765803,-0.03213195478343242
-0.041048608603958994,-0.041711056326629796,-0.026566041261961795
-0.06669961039646098,-0.06036988186735599,-0.044111464058091895
-0.10187340899175878,-0.08848958769122264,-0.06575668330825543
-0.1177213845432324,-0.1018323450789159,-0.07351910676348648
-0.1131326274921742,-0.09886356960856209,-0.07212229704832815
-0.1007875199186076,-0.0892783927678867,-0.06773460851559795
-0.08186702874079839,-0.07799608985317652,-0.06250456908594021
-0.062230951676073884,-0.07175257815545978,-0.06388005346193583
-0.05806253878236453,-0.07736982642867354,-0.07610480413696662
-0.06419255774370182,-0.08911107047889735,-0.09253597796184446
-0.059798960479984155,-0.09022495885988358,-0.09945605052014797
-0.05130200358500398,-0.0750273143828227,-0.09158166903431261
-0.06106499704914198,-0.05759711250696112,-0.0818466517065297
-0.08468933951156919,-0.04922621742066556,-0.07902637560225963
-0.09406201340102611,-0.046984098748208324,-0.07176509761735254
-0.07435587897674348,-0.04300660890709016,-0.05200717088308997
-0.044721615883650076,-0.03452097853691619,-0.0319986714136654
-0.030079627735998725,-0.02720660418966764,-0.023767090496854444
-0.022813678730397302,-0.020709718740052754,-0.02036036756560949
-0.0054094289773107,-0.0070179748638959935,-0.01036944616787391
0.017669466899985276,0.009776402313806066,0.002580366038689446
0.03532892560574796,0.01790348492186001,0.007607814746301321
0.04074836277728125,0.01936635979130972,0.005171394746960253
0.03642482287312173,0.025676800404622193,0.004238411158591135
0.03405788493947884,0.030772959263554844,0.0018233164984127904
0.03617461801755694,0.019261185781087844,-0.01014019877187464
0.03825632241585597,0.0016301971584390556,-0.018110544283942247
0.03959241634457193,-6.214827876747133e-05,-0.004206423149847051
0.036695044117131696,0.01240575256935293,0.020856181701142795
0.024134760367779378,0.021498523816716814,0.033917951938310445
0.0072058998402658725,0.021383788532838403,0.02999408953236947
-0.0031725975685615022,0.01947631443835986,0.01905952187668341
-0.00655036311868613,0.02039419670938713,0.010971886999220826
-0.007966522601182826,0.021335982164555733,0.011062519690662397
-0.008121649611632994,0.01668442253065192,0.016532469185900768
-0.004808937323955211,0.008853739405950531,0.020621602970352846
0.004613777536614677,0.012243210917191851,0.026949897366890803
0.01548768055946033,0.029061491279035248,0.040384861039406104
0.016878819556400547,0.03726506407634146,0.048264573860032134
0.009282600141453608,0.024835408322847197,0.03623175123746586
0.006910658110699424,0.011535676666608333,0.012795203497633616
0.02104222835299861,0.021030021407546645,0.0005331334790680673
0.047023500554846116,0.04824140623404255,0.004163772471521606
0.06392233649969185,0.06333387670088156,0.006354951070491363
0.058362784609042276,0.05174561302916228,0.001386147045576975
0.043105292516701546,0.0315330805192493,-0.0019139491898543617
0.03439816354304695,0.02188575539980644,-0.003737265688267152
0.03098036521603196,0.022994863143964393,-0.003262776891896572
0.028138038056815976,0.029568238782831553,0.008823359078576514
0.029409078723085093,0.039382886191263754,0.030148698241299208
0.03724549479937423,0.046874144101158186,0.04548694843408751
0.04924531967226143,0.05183166449207109,0.051895212852485675
0.06528345091396429,0.06629309089757884,0.06339490199598388
0.08271772524971867,0.0887716452640904,0.08213454378522646
0.09013880126577026,0.09948983303306506,0.09254664063142581
0.0844441387531157,0.09327500515631792,0.08920389371766903
0.08041083648141133,0.08632395920801768,0.08303553936485149
0.08951328912685828,0.08934054104665418,0.08232114050290028
0.10264904404400962,0.09339930171385287,0.08222517647666802
0.101843384409091,0.08374241532075348,0.07393495087715958
0.08522477790247783,0.0613690349644638,0.06125170541013026
0.06576884833375998,0.0426528417817984,0.055600490532008745
0.04724368082774313,0.03202070547573253,0.05385714405545616
0.025605964918500326,0.018281155231293107,0.04379691530544173
-0.0009357661598123043,-0.004641998360247281,0.023228625682995694
-0.03643483106734432,-0.036022098500992035,-0.0019512685333891264
-0.07760854209908571,-0.07228322884339743,-0.028831858548001084
-0.10762812066974889,-0.10365376771048564,-0.061998092280825555
-0.1090242637638004,-0.11323894455116103,-0.09487643393495326
-0.07655267760860231,-0.08853739405950531,-0.1035025336262746
-0.025961255813402327,-0.04403444582516757,-0.08299288868652605
0.014116557950965296,-0.012147598180626511,-0.054102385455827476
0.02205305596948035,-0.0027632080867383405,-0.02706718673228578
0.002782277993880434,-0.00032508330432215774,-0.0008476822317182271
-0.011644533977985198,0.006496885449614888,0.018846268485056182
0.0019165691936262703,0.01956236590126867,0.03136957390836508
0.036650007243130035,0.03892394505575012,0.047779422394080194
0.0705727815606039,0.05798434409005075,0.07004840781475337
0.08403880688710075,0.06511705423782516,0.08404316164029013
0.0733850841371521,0.05948068341729833,0.08230514649852824
0.05008100388984782,0.05182688385524282,0.07020834785847378
0.02371942030754183,0.04207916536240636,0.04743821696747663
0.0009507784511461916,0.0235589782896999,0.01709759067371292
-0.005694662512654558,0.007620335104257639,-0.00043716945283581523
-0.0026421632747641536,0.0005210894142811058,0.00158340643283216
-0.020827052177212892,-0.015967327006411864,1.0662669581361347e-05
-0.06689977428091282,-0.05301726242548131,-0.024801369446246495
-0.11500916390891011,-0.09863887967763353,-0.06726545105401806
-0.1423065136510284,-0.13254793670053155,-0.10781558347193526
-0.13917895295646857,-0.1415116307535322,-0.12991929751409734
-0.10968480458249144,-0.12713625581093327,-0.12914092263465796
-0.07488130917342953,-0.10192317717865298,-0.11203800062615435
-0.05616598597718344,-0.07667185345174655,-0.08816961476827698
-0.04970069250938934,-0.053939925333336844,-0.06567671328639521
-0.0390469697594407,-0.03611771123755737,-0.0526895817362971
-0.02581613699717475,-0.027526906857161533,-0.051506025412765985
-0.01581795096880585,-0.022043516415139255,-0.05042909578504849
-0.0015412619102790895,-0.008705539664274254,-0.03593319648918774
0.014071521076963635,0.007945418408579796,-0.012811197502005659
0.012435181321569927,0.012286236648646255,0.0005437961486494287
-0.005429445365755884,0.0013529202223995682,-0.0022764799556206474
-0.015822955065917146,-0.010321394912228507,-0.008012996190393052
-0.01219498466022773,-0.011114980625720835,-0.006115041004910732
-0.010698759623950303,-0.005798912472687902,0.0006290975053003195
-0.01689883594484573,-0.003771922457502683,0.0085514610042518
-0.019535995122498588,-0.004794978738751826,0.014853098726836357
-0.018174880708226145,-0.006611620733493296,0.013285686298376238
-0.027607603763018625,-0.014776948436173375,0.0004904828007426219
-0.04758896352842253,-0.03207329248084347,-0.01889958183296299
-0.05654629735764192,-0.046888486011642985,-0.03351277049421871
-0.044571492970311204,-0.044158742382702516,-0.03308093237617358
-0.02531072318893388,-0.02365937166309351,-0.016804367260225484
-0.012685386177134713,0.00016254165216107887,0.007341248006767287
-0.009642895133466901,0.011975495254808899,0.026944566032100124
-0.011564468424204466,0.009709473398210329,0.03521346629244585
-0.008957333829219384,0.005526416173476681,0.03641834795513968
0.0024269870989784364,0.012075888628202506,0.034563043447982805
0.013756262958952003,0.030557830606282827,0.029396980035813234
0.01337094748138223,0.04726615632107608,0.02587296773917331
0.007641256288948603,0.047165762947682474,0.030367282967717117
0.017799573424878964,0.03610814996390084,0.039046696006945256
0.04752891436308699,0.03473610719418821,0.046899752153617885
0.07646760795771028,0.04491886363839697,0.053254703224109246
0.08755168305923036,0.04900152748973701,0.053574583311550086
0.08313306530995622,0.045186579300779926,0.0506476805114664
0.07535169430189133,0.04585586845673731,0.055627147205962145
0.06970707276034972,0.050115415870723226,0.06293107586919466
0.05585072785917181,0.04583196527259597,0.05432097018224538
0.02095715870210658,0.02704884317433483,0.031252284542970105
-0.017854618493103217,0.004560727534166742,0.012363365379588482
-0.03176100436539409,-0.005249139237437194,0.004488983893753127
-0.02534575186871295,-0.002873162733788482,0.0005651214878121514
-0.02018152364985574,-0.0013911653170257043,-0.00775709212044038
-0.021727789657246126,-0.004919275296286769,-0.019832565421332105
-0.023284063858859103,-0.008299185533871555,-0.02619817916140483
-0.019846249143398925,-0.009924602055482344,-0.02495064682038555
-0.01118415704374599,-0.009785963587462601,-0.018718316450079844
-0.0013010652489368938,-0.00609053131921219,-0.006424258422770212
0.0014561922593870618,-0.0016110746111259876,0.003822567044918043
-0.0091725100050051,-0.002825356365505812,-0.0022444919468765636
-0.02809800527992561,-0.011177128904488305,-0.02454546537629382
-0.043940976734287936,-0.0222108387041286,-0.04894165337844858
-0.05115188067166511,-0.03252267234270057,-0.06354951070491363
-0.0465731318148295,-0.03659099428355581,-0.05904453280678846
-0.029349029557749543,-0.02702972062702176,-0.03268641360166321
-0.010988997256405456,-0.010388323827824246,-0.00593910695681827
-0.0017614421831761023,-0.0012095011175515574,-0.0005544588182307901
0.004083343242817328,-0.002457247329729251,-0.00768245343337085
0.01343099664671778,-0.007926295861266728,-0.013824151112234987
0.022058060066591643,-0.012577855495170544,-0.02076021767491054
0.02438996932045546,-0.012286236648646255,-0.025366490934058645
0.01992131060006836,-0.005894525209253243,-0.020797537018445306
0.00946775173457155,-0.002591105160920728,-0.014943731418277928
-0.0026371591776528577,-0.009800305497947403,-0.016612439207760978
-0.01286553367314136,-0.02127383388578826,-0.02112274844067683
-0.018925495274920507,-0.025848903330439807,-0.020776211679282584
-0.011784648697101479,-0.015857372359361722,-0.012315383366472355
0.006120010767114696,0.0038675351940680234,-0.0003412054266035631
0.013110734431594852,0.014920367541021386,0.003902537066778253
0.0006555367215797426,0.00639649207622128,-0.0054379614864942865
-0.01614822137815137,-0.014069414185589855,-0.024801369446246495
-0.026211460668967113,-0.035706576470326414,-0.04701704151901286
-0.030024582667774472,-0.04963735218789653,-0.05947637092483359
-0.024620157787575064,-0.04532999840562794,-0.04994394431909655
-0.009152493616559917,-0.025303910732017366,-0.024865345463734662
0.00544445765708977,-0.008786810490354792,-0.0032894335658499754
0.01236011986490049,-0.006061847498242588,0.005075430720728001
0.01912065506226104,-0.004522482439540606,0.005507268838773136
0.03415296278459346,0.012171501364767846,0.01004956608043307
0.05370897429553723,0.042117410457032496,0.021650550584954215
0.06242110736630312,0.065705072567702,0.03156150196082959
0.05167731086835116,0.06633611662903324,0.036887505416719577
0.03414795868748217,0.048800740742949794,0.04224016554656298
0.026866997390546855,0.031098042567876998,0.04705436086254763
0.02841326339793724,0.02381713267842632,0.04829123053398554
0.029208914838633263,0.02619310918207503,0.04836053788626439
0.03183606582206353,0.03296249093090114,0.04900029806114607
0.04137887901330452,0.03736545744973507,0.04743288563268595
0.05182242968457874,0.03558227991279147,0.04386622265772058
0.05554547793538277,0.03190597019185413,0.039211967385456355
0.05239289675526645,0.03307722621477955,0.034472410756541234
0.044616529844312865,0.03925858963372881,0.035117502266213595
0.038311367484080226,0.04697931811138006,0.040363535700243376
0.04305525154558859,0.0519320578654647,0.039766426203687144
0.050291175968522235,0.04507662465372978,0.025979594434986923
0.0350436920704041,0.021288175796273064,0.004542297241659934
-0.00805659634918615,-0.007562967462318434,-0.010161524111037363
-0.05406926928755053,-0.023296043264145215,-0.011920864591961986
-0.07380042419738965,-0.023425120458508423,-0.009015287131041019
-0.060324390676670205,-0.01919425686549211,-0.008588780347786564
-0.03618963030889083,-0.017282002134185296,-0.005198051420913657
-0.026276513931413958,-0.013921214443913577,0.007661128094208128
-0.026681845797428914,-0.0054833904420222785,0.023532511766064492
-0.024029674328442167,0.0021656284832049623,0.029471618722882762
-0.019566019705166363,0.0038675351940680234,0.02271681754309035
-0.015177426538559994,0.002811014455021011,0.013669542403305247
-0.007546178443833983,-0.001883570910337208,0.009473781923039557
0.0014812127449435406,-0.013032015993855912,0.007341248006767287
0.0087021248765433,-0.02257894773990516,0.008055646868718498
0.016788745808397225,-0.021120853507283717,0.018723647784870526
0.027382419393010317,-0.010115827528613026,0.035735937101932555
0.03451826187371805,0.003571135710715468,0.03993702891698892
0.026266505737191366,0.010852045600166147,0.019901872773610954
-0.009532804997018394,-0.0019218160049633442,-0.020861513035933477
-0.06520838945729486,-0.03480303610978394,-0.0735137754286958
-0.09669917257867898,-0.05866319451966467,-0.1105932088978799
-0.06958697442967864,-0.04766772981465051,-0.1011034329704683
-0.014181611213412142,-0.013973801449024515,-0.05691199889051619
0.0205818514187594,0.014738703341547239,-0.01779599553129209
0.029233935324189744,0.027263971831606844,-0.0012741890149726809
0.031690947005835954,0.027297436289404713,0.0032414515527338494
0.03913704350744402,0.02468720858117092,0.010593362229082498
0.0446965953980936,0.024486421834383702,0.02193844266365097
0.037120392371591836,0.0231095984278428,0.029972764193206745
0.022408346864382346,0.01907474094478543,0.035256116970771294
0.012059874038222746,0.013658279418358892,0.040710072461637624
0.002767265702546547,0.007548625551833633,0.042293478894469785
-0.009898104086142983,0.0011712560229254212,0.03823633311876179
-0.0216427200063541,-0.007462574088924826,0.03128427255171419
-0.03182105353072964,-0.02036073225158926,0.022183684064022283
-0.040217928483483906,-0.03352660607663665,0.009953602054200818
-0.04259487461134938,-0.04129514092257056,-0.005821817591423296
-0.04700348416640093,-0.04981901638737067,-0.027115168745401905
-0.06449280357037956,-0.06648909700753779,-0.055765761910519844
-0.08474438457979344,-0.07875143047204271,-0.08169737433239065
-0.09563830399108428,-0.07615076403746544,-0.09320239481067953
-0.09848563524741157,-0.06652734210216392,-0.09256796597058853
-0.08157178701123194,-0.0484230704335167,-0.07777884326124035
-0.0330470573229971,-0.016258945852936153,-0.045087098324786454
0.024635170078908954,0.017329808502467965,-0.010673332250942708
0.06641437686111713,0.04170627568980153,0.010657338246570666
0.09350655862167229,0.06029817231493199,0.025217213559919585
0.10622196938147478,0.0712123661938656,0.04081136782266056
0.09929629897944146,0.06845393874395554,0.0546461816044769
0.08366349960375356,0.06042246887246693,0.06314432926082189
0.07136342890418862,0.05869187834063427,0.06788388588973701
0.05217772057948073,0.05236231518000873,0.06308568457812441
0.012109915009335703,0.020661912371770084,0.03639169128118628
-0.03687519161313835,-0.026379554018377445,-0.0037479283578485136
-0.06849107716230486,-0.05807995682661609,-0.03660494467281351
-0.07345514149671024,-0.06461508737085711,-0.055787087249682565
-0.06133021419604065,-0.05528806491890815,-0.06231264103347571
-0.04710356610862685,-0.04249030012963732,-0.059097846154695266
-0.03827133470718986,-0.033612657539545454,-0.05002924567574744
-0.029714328646874136,-0.027393049025970055,-0.035991841171885225
-0.01886544610958496,-0.02289925040739905,-0.02256754016895129
-0.01343099664671778,-0.023458584916306292,-0.01802524292729136
-0.01900556082870124,-0.030815984995009246,-0.02232229876857998
-0.031640906034723,-0.042069604088749823,-0.02851730979535092
-0.0416340879659806,-0.04914972723141329,-0.028965141917768097
-0.04008782195859022,-0.042820164070787745,-0.01954467334263535
-0.0266968580887628,-0.026781127511951875,-0.005453955490866329
-0.01527750848078591,-0.02034639034110446,1.0662669581361347e-05
-0.023669379336428875,-0.0355631573654784,-0.012336708705635078
-0.050836622553653475,-0.06304703849118554,-0.04009696896070934
-0.0751415222232169,-0.08352728666348147,-0.06888617683038498
-0.07911977942669703,-0.08502840662755731,-0.08226249582020279
-0.06600404089799088,-0.07082513461077598,-0.07955417774653702
-0.05084663074787606,-0.05376304177069097,-0.07164780825195757
-0.047108570205738144,-0.04719922740548034,-0.06865692943438571
-0.05591077702450736,-0.05197030296009083,-0.0724688338097224
-0.05901331723351072,-0.04957998454595732,-0.07012837783661358
-0.04252481725179124,-0.02744563603108099,-0.05314274519350495
-0.017299163713749392,0.001893132183993742,-0.03146553793459733
0.0024019666134219575,0.020580641545689542,-0.013157734263399902
0.01373624657050682,0.02863601460131948,0.003854555053662127
0.019946331085624838,0.04369980124718888,0.026102215135172576
0.033632536685018706,0.07641369906302013,0.06000950440390166
0.06428763558881644,0.11048529773807922,0.09619327362825139
0.09899605315276372,0.12414835779326638,0.11692683462920853
0.12508741549105973,0.12142339480115417,0.12133584850110145
0.14672012730319126,0.12054853826158131,0.1192779532718987
0.15915530862476118,0.12293885667571482,0.11325354495842954
0.14638985689384573,0.1168244221723613,0.0993067731460089
0.11371310275708452,0.10006350945245711,0.07819468737491343
0.08963839155464068,0.08278628795510008,0.06401866816649353
0.08935315801929683,0.07845503098869015,0.07338049205892878
0.10177833114664415,0.09170695627664635,0.10014912404293645
0.10939456695003628,0.10805195359249131,0.11925129659794531
0.09637390626644475,0.10464814017076518,0.11476764403898286
0.053433748954415966,0.07008891653922286,0.08480554251535748
-0.011909751124883874,0.007801999303731785,0.025867636404382627
-0.0799804841298399,-0.06732092781565625,-0.05837811595795338
-0.12215501458384043,-0.12345516545316766,-0.12939682670461064
-0.11445370912955628,-0.1282358022814347,-0.14263986232466142
-0.06819083133562712,-0.08742828631534735,-0.10351319629585595
-0.018229925776450398,-0.037523218465067884,-0.05040777044588577
0.014767090575433744,-0.003791045004815751,-0.011435713126010045
0.02977938190932098,0.012687810142220686,0.005182057416541615
0.03064509070957514,0.01820466504204083,0.0067068191666762875
0.021162326683669706,0.014628748694497097,0.0040198264321732275
0.009602862356576534,0.007639457651570707,0.002969553478409135
0.003262671316564826,0.006463420991817018,0.0076344714202547246
0.0027772738967691384,0.011626508766345406,0.017673374831106432
0.006850608945363875,0.016062939742977206,0.023697783144575595
0.017999737309330795,0.016125088021744675,0.0194753659903565
0.04087846930217494,0.014867780535910449,0.009884294701921969
0.06450281176460215,0.011750805323880347,0.00020792205683654627
0.06028936199689114,-0.0005736764193920431,-0.009745679997364271
0.013275869636267612,-0.01987788793193429,-0.018222502314546543
-0.058522915716603736,-0.03407637931188735,-0.020674916318259653
-0.11213180806991506,-0.04084576106071346,-0.01844108704096445
-0.11327774630840177,-0.04485193472280123,-0.01905952187668341
-0.07698302996017374,-0.04787329719826599,-0.02699254804521625
-0.04519700510922317,-0.05453750493687023,-0.04108859723177595
-0.03577929434576458,-0.06668032248066846,-0.05964697363813538
-0.03870168705876129,-0.07092552798416958,-0.074478747025809
-0.03262671316564826,-0.05231450881172606,-0.07077880068107661
-0.006845604848252579,-0.01590517872764439,-0.04567887648655201
0.022323277213490318,0.01875443827729154,-0.010252156802478936
0.029454115597086755,0.03563008628107414,0.019859222095285508
0.010868898925734359,0.03209241502815654,0.03153484528687618
-0.01051360803083236,0.020250777604539118,0.027365741480563897
-0.013380955675604822,0.015020760914414994,0.0212133811321184
-0.0037230482508040343,0.016837402909156463,0.020056481482540692
-0.0001551270104501681,0.015737856438655048,0.01907551588105545
0.00021517617578571704,0.012759519694644691,0.015300930849253533
0.013410980258272597,0.017253318313215693,0.017593404809246222
0.0319911928325137,0.026202670455731564,0.027653633559260652
0.03609955656088751,0.030796862447696177,0.03445108541737851
0.027597595568796034,0.032661310810720316,0.0381243750881575
0.02414476856200197,0.038355049273186344,0.04771544637659203
0.03343237280056687,0.04692673110626912,0.060297396482598416
0.04550225503301221,0.049785551929572805,0.06627915411774213
0.04656312362060691,0.04296836381246402,0.06276047315589289
0.03223639359096719,0.03163825452947117,0.05282286510606411
0.009793018046805773,0.020269900151852187,0.042453418938190206
-0.004353564486827298,0.011392257561760322,0.03730868086518335
0.0018965528051810873,0.01168387640828461,0.03936124475959541
0.020446740796754414,0.023104817791014535,0.04425541009744027
0.03191613137584426,0.033885153838756676,0.04231480423363251
0.024339928349342503,0.026891082159002017,0.02334591504839067
-0.000745610469583066,-0.002591105160920728,-0.013717524416421373
-0.027322370227674767,-0.035481886539397864,-0.048696411978077274
-0.03991768265680616,-0.04869556673272792,-0.05968962431646082
-0.04086846110795235,-0.04344642749529073,-0.05137274204299897
-0.03944229343123306,-0.03702603223492811,-0.04046483106126631
-0.038746723932762954,-0.03718857388708919,-0.031636140647899116
-0.035579130461312745,-0.03589780194345709,-0.02017377084793567
-0.02404969071688735,-0.025882367788237676,-0.005491274834401093
-0.005209265092858871,-0.013271047835269263,0.007096006606395976
0.010798841566176217,-0.006468201628645285,0.012853848180331104
0.014336738223862309,-0.004976642938225973,0.010945230325267423
0.005484490433980136,-0.0038292900994418874,0.004846183324728732
-0.0038681670670316108,-0.0005067475037963047,0.0009916282710666052
-0.000765626858028249,0.005292164968891597,0.005256696103611144
0.01453690210831414,0.01661749361505618,0.01472514669186002
0.025245669926487035,0.03032357940169774,0.01766804349631575
0.01573288131791382,0.031121945752018335,0.010113542097921237
-0.00560959286176253,0.015039883461728062,0.0012208756670658743
-0.018895470692252732,-0.004364721424207794,-0.003998501093010505
-0.02419480953311493,-0.01844847752028245,-0.009591071288434531
-0.03236149601874958,-0.02585846460409634,-0.013307011637538961
-0.0384514822031965,-0.025576407031228585,-0.009564414614481128
-0.03776091680183769,-0.02246899309285502,-0.0063282943965379595
-0.03634976141645229,-0.021221246880677325,-0.012933818202191314
-0.027632624248575103,-0.014729142067890706,-0.019747264064681216
-0.0030374869465565175,0.005282603695235063,-0.010993212338383549
0.02409472759088901,0.03315849704086009,0.012304720696890994
0.03913203941033273,0.0528738433206333,0.031705448000177966
0.04777911921865177,0.05877314916671481,0.03626907058100062
0.061645472314052284,0.06464855182865499,0.03909467802006138
0.07732831266085315,0.07986053821620066,0.055349917796846754
0.08474938867690474,0.0938582428493665,0.07746429450859019
0.0858552941385011,0.09362399164478143,0.08729527586260535
0.08826726894614564,0.08366114449467295,0.08547729069898324
0.09590352113798295,0.08400535034630817,0.09093657752464025
0.1079734033704283,0.10222913793566207,0.10714916662310017
0.11719595434654635,0.11822036812621527,0.11458104732130904
0.1163052250607357,0.11199119833898334,0.10400367909659858
0.10117283539617737,0.0866968488806225,0.0856532247470757
0.06697983983469355,0.0514970199140924,0.0615982421715245
0.01198481258155331,0.0021512865727201613,0.017614730148408947
-0.05274818765016845,-0.0636015923632645,-0.04828056786440418
-0.10159818365063751,-0.12182974893155687,-0.10526187410719921
-0.11657044220763438,-0.14237214538262027,-0.11951253200268866
-0.11023025116762267,-0.12769080968301225,-0.09695565450331872
-0.10533624419277543,-0.10474853354415879,-0.07027232387596195
-0.1051460885025462,-0.09266786427912801,-0.05844742331023222
-0.09869080322897468,-0.0896847468982894,-0.059007213463253695
-0.07321494483536804,-0.07677702746196843,-0.061699537532547435
-0.03080021772002531,-0.04686936346432992,-0.061241042740548896
0.001396143094051513,-0.026336528286923042,-0.0632509559566355
0.007506145666943618,-0.03601731786416377,-0.073711034815951
0.002176782243413649,-0.05720988092387149,-0.08220918247229599
-0.008286784816305754,-0.06517920251659262,-0.0742068489514843
-0.030454935019345906,-0.05900261973447163,-0.05771169910911829
-0.04978576216028137,-0.04493798618571004,-0.048301893203566905
-0.04424622665807698,-0.026111838355994493,-0.04589746121296992
-0.02041671621408664,-0.007639457651570707,-0.04857379127789162
-0.007446096501608069,0.0006406053349877814,-0.05758907840893263
-0.0201114662902976,-0.011014587252327226,-0.06285110584733446
-0.04097354714728956,-0.03381344428633267,-0.05694398689926027
-0.04682333667039429,-0.04514833420615379,-0.0499012936407711
-0.035038687973292806,-0.03669138765694942,-0.044138120732045295
-0.015918032911031766,-0.018524967709534722,-0.02748303084595887
0.0016813766293953703,-0.0007983663503205932,0.0030815115090134294
0.014872176614770954,0.013395344392804206,0.03443509141300647
0.027657644734131584,0.02330082390097348,0.05234304497490285
0.04064828083505534,0.028755530522026156,0.05621359403293702
0.043485603897160025,0.0293292069414182,0.054102385455827476
0.03148077492716153,0.0280240930873013,0.052380364318437615
0.013921398163624763,0.030495682327515355,0.05207647823536882
0.007836416076289137,0.03695910331933237,0.05080228922039614
0.024910395420030217,0.03993744006334273,0.043983512023115554
0.04719363985663017,0.031026333015452993,0.02934899802269711
0.04496181254499227,0.011129322536205634,0.015130328135951752
0.021372498762344126,-0.009723815308695129,0.007650465424626766
0.008602042934317386,-0.015049444735384596,0.008247574921183002
0.025656005889613285,0.005249139237437194,0.021810490628674635
0.04938043029426641,0.027751596788090083,0.03435512139114626
0.04095853485595567,0.015216767024373941,0.013653548398933206
0.0021667740491910577,-0.024711111765312255,-0.03972910686015238
-0.02201802728970128,-0.04363287233159314,-0.07923429765909618
-0.005924850979774163,-0.018056465300364553,-0.06990979311019567
0.014016476008739382,0.02249767691382462,-0.028762551195722234
-0.009037399383000116,0.035075532408995164,0.005080762055518682
-0.05328863013818839,0.015197644477060873,0.014117374525722424
-0.062791410552539,-0.009283996720494563,0.004451664550218362
-0.036299720445339335,-0.02381713267842632,-0.012533968092890263
-0.005769723969323994,-0.027024939990193494,-0.021229375136490442
0.014897197100327433,-0.01710033793471115,-0.013904121134095197
0.014867172517659658,-0.00750559982037923,-0.004963472690123707
-0.007461108792941956,-0.013376221845491136,-0.007970345512067607
-0.03136568069360173,-0.0257771937780158,-0.021021453079653897
-0.039277158226560305,-0.030237527938788936,-0.035277442309934015
-0.03517379859529779,-0.03425326287453324,-0.045769509177993585
-0.04488675108832283,-0.057625796327930724,-0.06104378335329371
-0.08542994588404096,-0.09971930360082189,-0.08606906886074879
-0.12912572185987542,-0.1347422490047061,-0.10576835091231389
-0.1400596740480566,-0.1444899674975426,-0.10567771822087231
-0.12475714508171422,-0.13302121974652997,-0.09202950115672978
-0.10272410550067905,-0.10835313371267213,-0.08192662172838991
-0.07220411721888631,-0.07703040121386658,-0.08469358448475318
-0.031050422575590098,-0.04892503730048474,-0.09557483879253244
0.009512788608573212,-0.02261241219770303,-0.10083686623093426
0.03147076673293894,0.010593891211439728,-0.09274390001868099
0.023939600580438845,0.0403772586515433,-0.07765089122626401
-0.0007255940811378831,0.04766772981465051,-0.06426390956686484
-0.020987183284774356,0.03501338413022769,-0.05232705097053081
-0.02419480953311493,0.021737555658130164,-0.035714611762769834
-0.010048226999481855,0.017191170034448224,-0.014122705860513105
0.0072008957431545775,0.01983008156365162,0.0055339255127265395
0.014737065992765969,0.028889388353217634,0.020626934305143525
0.013330914704491865,0.037666637569915895,0.03156683329562027
0.010453558865496811,0.03656231046258621,0.0368821740819289
0.012905566450031726,0.030897255821089785,0.04505511031604237
0.018575208477129807,0.03166693835044078,0.0662045154306726
0.020882097245437145,0.0359264857644267,0.08866542890381028
0.02065190877831754,0.03709774178735212,0.09803791546582691
0.023023850809071725,0.039234686449587476,0.10047433546516797
0.03401284806547718,0.047878077835094256,0.10278813476432339
0.05859297307616188,0.06189968565240144,0.09741948063010794
0.09147989929159751,0.07703518185069484,0.08041785398262728
0.11628520867229053,0.08588892125664538,0.06387472212714515
0.12038856830355303,0.08573594087814083,0.0592257981896716
0.10770318212641831,0.0862474690187654,0.06437586759746913
0.08968342842864234,0.09387258475985132,0.07195169433502636
0.06977212602279657,0.09967149723253921,0.07726170378654432
0.049410454876934184,0.09395863622276011,0.0805244806784409
0.03484352818595227,0.0794350615384849,0.082342465842063
0.026576759758091702,0.06112044184939392,0.0799700218602101
0.022088084649259418,0.04345598876894726,0.07669125096394148
0.028923681303289407,0.03771444393819856,0.08008197989081439
0.05330364242952228,0.04802627757677053,0.08927320106994788
0.07482626410520528,0.053251513630066395,0.0931864008063075
0.060314382482447616,0.027311778199889516,0.07507052518757457
0.010618694070169571,-0.02364024911578044,0.02931167867916234
-0.0335174424514589,-0.06411312050388908,-0.019709944721146448
-0.035183806789520385,-0.0631665544118922,-0.03443509141300647
-0.002867347644772462,-0.030333140675354274,-0.016841686603760248
0.01620326644637562,-0.013094164272623382,-0.015002376100975415
-0.0024019666134219575,-0.031059797473250862,-0.048307224538357584
-0.0338677292492496,-0.05036878962262138,-0.07748028851296222
-0.056160981880072146,-0.048547366991051645,-0.07356175744181194
-0.07730329217529668,-0.04858561208567778,-0.05963631096855401
-0.10108776574528534,-0.07063868977447357,-0.06286176851691583
-0.10786331323397978,-0.09559361401802743,-0.07091208405084364
-0.08341329474818877,-0.09704692761382061,-0.062419267729289324
-0.04413613652162847,-0.07496994674088349,-0.03996368559094233
-0.009893099989031689,-0.04153417276398392,-0.014687827348325256
0.016673651574837422,-0.008896765137404934,0.006978717241001002
0.03133065201382266,0.014265420295548803,0.02414561526699277
0.0290487837310718,0.03068212716381777,0.03772452497885644
0.016608598312390577,0.04060194858247185,0.040246246334848405
0.004713859478840592,0.04012866553647341,0.03275572095394206
-0.0006255121389119681,0.03759492801749189,0.037761844322391214
0.002211810923192719,0.041089573538955086,0.06031339048697046
0.012515246875350659,0.04489496045425564,0.0737643481638578
0.027137218634556825,0.042609816050343995,0.0644931569628641
0.03718544563403868,0.03394730211752415,0.04302387176079304
0.03267175003964992,0.016579248520430044,0.01718289203036381
0.016163233669485258,-0.01226233346450492,-0.013824151112234987
-0.0046187816337259725,-0.0453204371319714,-0.04655854672701432
-0.031615885549166514,-0.0693718210149828,-0.0678625605505743
-0.060839812679133666,-0.08060153692458205,-0.07214362238749088
-0.07661773087104916,-0.08361811876321854,-0.06639111214834642
-0.07834414437444619,-0.08020952470466415,-0.05481145298298801
-0.08440410597622533,-0.07569182290195181,-0.047912705763847215
-0.10063239290815744,-0.08250423038223233,-0.06055863188734177
-0.10872401793712265,-0.097716216769778,-0.07882911621500444
-0.09488268532727863,-0.10028819938338565,-0.074478747025809
-0.06731511434115037,-0.07726943305527993,-0.04946412418793529
-0.040453121047714806,-0.03495123585146022,-0.027173813428099394
-0.019280786169822504,0.00515830713770012,-0.02097347106653777
0.006120010767114696,0.030562611243111094,-0.02147461653686175
0.03960742863590582,0.050947246678841686,-0.00950576993178364
0.055340309953819646,0.06582458848840868,0.011894207918008583
0.04047313743615999,0.06118737076498966,0.025846311065219906
0.02673188676854187,0.043188273106564305,0.03439244073468103
0.03558913865553534,0.03293380710993154,0.04900562939593675
0.048574770659347795,0.034363217521583375,0.06505294711588558
0.043605702227831125,0.03180557681846052,0.06728677639318079
0.02512056749870464,0.021144756691425053,0.054081060116664754
0.020491777670756075,0.021732775021301897,0.04300254642163031
0.04262990329112845,0.04318349246973604,0.04578017184757494
0.06725006107870352,0.0657337563886716,0.049293521474633506
0.06199075501473169,0.06663729674921406,0.035645304410490984
0.02142754383056838,0.04068800004538065,0.008882003761274002
-0.025595956724277735,-0.0005832376930485771,-0.015876715006647047
-0.04557731648968165,-0.03593126640125496,-0.031172314521109898
-0.03992769085102875,-0.05066040846914567,-0.03151351994771346
-0.03246658205808679,-0.04831789642329482,-0.02088816970988688
-0.030865270982472156,-0.04434040658217666,-0.01645783049883124
-0.026106374629629902,-0.044569877149933476,-0.01899554585919524
-0.014291701349860648,-0.039382886191263754,-0.014517224635023473
-0.00018515159311794258,-0.020131261683832443,0.0019086178550636811
0.011324271762862272,0.009102332521020415,0.025126580868478014
0.017109008023520153,0.03496079712511676,0.04115257324926412
0.02103722425588731,0.05532631001353428,0.040662090448521496
0.032616704971425665,0.07822077978410506,0.03268108226687253
0.04462153394142416,0.09488607976744391,0.031636140647899116
0.03494361012817819,0.08990943682921794,0.04014495097382547
0.005579568279094756,0.0694148467464372,0.048189935172962606
-0.014081529271186227,0.05235753454318046,0.04980532961453885
-0.008992362508998455,0.049493933083048516,0.05301479315852862
0.00850196099209147,0.059036084192269495,0.06509559779421102
0.01662861470083576,0.06066150071388028,0.06913674956554697
0.006185064029561541,0.031332293772462085,0.038844105284899386
-0.0008506965089202766,-0.010058459886673822,-0.007575826737557237
0.01570285673524605,-0.026652050317588667,-0.02785089294651584
0.03558913865553534,-0.024037041972526603,-0.02731242813265709
0.03213631164874128,-0.02905671064220698,-0.03578925044983936
0.004143392408152877,-0.046931511743097384,-0.05476347096987188
-0.03008463183311002,-0.06449079081332217,-0.06928069560489535
-0.044071083259181625,-0.06772728194605895,-0.07189304965232889
-0.030024582667774472,-0.054700046589031305,-0.06721213770611124
-0.002211810923192719,-0.03638542689994033,-0.06286176851691583
0.024630165981797656,-0.023492049374104162,-0.0582608265925584
0.03721046611959516,-0.015025541551243261,-0.04960807022728367
0.03502367568195892,-0.0023616345931639104,-0.03606647985895475
0.03540899115952869,0.01619679757416868,-0.015188972818649239
0.03966747780124137,0.03045743723288922,0.008860678422111279
0.02824812819326448,0.026542095670538526,0.015220960827393323
-0.006435268885126328,-0.0020365512888417528,-0.007943688838114204
-0.04511693955544244,-0.040539800303704375,-0.0346483448046337
-0.0576271823336818,-0.06075711345044563,-0.03625840791141926
-0.04477165685476303,-0.05337102955077307,-0.02296205894346166
-0.03687018751602705,-0.03223105349617628,-0.012411347392704608
-0.034538278262163234,-0.011698218318769412,-0.0022658172860392863
-0.013155771305596514,0.0010469594653904786,0.0069147412235128335
0.01924075339293214,0.003585477621200269,0.006088384330957329
0.03672006460268818,0.002194312304174565,-0.0003198800874408404
0.0373956177127131,0.004986204211882507,0.002756300086781908
0.025175612566928893,0.0029018465547580845,0.010742639603221558
-0.0003352745064568149,-0.018620580446100064,0.002756300086781908
-0.02201802728970128,-0.0457124493518893,-0.02060027763119012
-0.026541731078312633,-0.05136316208290092,-0.04198959281140099
-0.029188898450188083,-0.04304963463854456,-0.06047333053069088
-0.03945730572256695,-0.04594670055647438,-0.07906369494579439
-0.04315533348781451,-0.05185078703938416,-0.08585048413433088
-0.03435813076615658,-0.037905669411329244,-0.07186639297837548
-0.024635170078908954,-0.012123694996485176,-0.040203595656522956
-0.02209809284348201,0.0031265364856866346,0.0012155443322751935
-0.02383951863821293,0.004775856191438758,0.03903070200257321
-0.02261851894305677,0.003040485022777828,0.05687467954698142
-0.01060868587594698,0.00877724921669826,0.05524862243582382
0.015407615005679599,0.027751596788090083,0.05484877232652277
0.043850902986284614,0.05210416079128231,0.06572469529951135
0.05864801814438613,0.07159959777695524,0.07527311590962042
0.06193570994650743,0.08725618338952974,0.07289534059297685
0.06665957761957061,0.09977667124276109,0.06987780510145158
0.07371535454649762,0.10330956185885042,0.08276364129052678
0.08005554558650933,0.09834248019428098,0.10808748154625998
0.09305118578454438,0.09765406849101052,0.13255830823548426
0.11116101323032368,0.11027494971763548,0.15110602197226233
0.11708586421009784,0.12377068748383328,0.1595348622763285
0.10272410550067905,0.11832554213643715,0.1468889361528339
0.07127835925329659,0.08805454973985034,0.10761832408468007
0.028983730468624954,0.04276279642884854,0.05747178904353766
-0.007841420173400433,0.004952739754084638,0.02508926152494325
-0.0318710945018426,-0.014733922704718972,0.010982549668802187
-0.046903402224175016,-0.027230507373808978,-0.010001584067316943
-0.040918502079065305,-0.032584820621468044,-0.03430180804323945
-0.019330827140935463,-0.027211384826495908,-0.04503911631167033
-0.014501873428535069,-0.025031414432806143,-0.05279620843211071
-0.023063883585962088,-0.029577800056488086,-0.0676386444893657
-0.018610237156908876,-0.03325889041425369,-0.08533334465963487
-0.007190887548931986,-0.042738893244707206,-0.10092749892237583
-0.007135842480707732,-0.05711426818730615,-0.10258021270748684
-0.021667740491910576,-0.06246858143496522,-0.08990762991003888
-0.04914523773003551,-0.06451469399746351,-0.08360599218745432
-0.08052593071497113,-0.07546713297102327,-0.09116049358584884
-0.09811032796406438,-0.08799240146108286,-0.09891758570628921
-0.09616373418777033,-0.09256747090573442,-0.0981498734964312
-0.09107456742558256,-0.09583742649626906,-0.09949870119847341
-0.10206856877909931,-0.10761691564111901,-0.11515683147870255
-0.12420669439947168,-0.12321135297492604,-0.1348934328738024
-0.13841332609844031,-0.13379568291270924,-0.14347688188679827
-0.1417110260947842,-0.14111483789678606,-0.14619586263004544
-0.1353908514432177,-0.14079931586612043,-0.14503363164567704
-0.10716774373550968,-0.11616469429006045,-0.12029623821691872
-0.05820265350148081,-0.06891287987946917,-0.06842235070359576
-0.01688882775062314,-0.026159644724277162,-0.019981842795471164
-0.001491220939166132,-0.00581803502000097,0.004206423149847051
0.002782277993880434,0.0010708626495318137,0.018462412380127174
0.011039038227518413,0.009040184242252945,0.03736732554788084
0.018530171603128143,0.019036495850159294,0.051799248826253426
0.022678568108392316,0.02641779911300358,0.05307876917601678
0.02746248494679105,0.03192987337599546,0.04804065779882355
0.0316359019376117,0.03638542689994033,0.043194474474094816
0.034713421661058584,0.0373606768129068,0.040182270317360234
0.037060343206256285,0.036022098500992035,0.04097663920117166
0.030855262788249564,0.03672963275157556,0.043498360557163614
0.012270046116897167,0.040778832145117724,0.04528435771204164
-0.010288423660824051,0.04403444582516757,0.04537499040348321
-0.026721878574319277,0.04099396080238974,0.03844958651038902
-0.025135579790038526,0.03408594058554389,0.024182934610527534
-0.0002201802728970128,0.03072515289527217,0.007890375490207397
0.030349848980008694,0.028325273207482127,-0.01360556638581708
0.039277158226560305,0.014241517111407469,-0.03973976952973374
0.019115650965149746,-0.012812106699755629,-0.05129810335592944
-0.004478666914609692,-0.032240614769832816,-0.03503753224435339
-0.0006805572071362213,-0.026876740248517217,-0.007570495402766556
0.020046413027850755,-0.011559579850749667,0.007533176059231791
0.024455022582902306,-0.011798611692163018,0.011510351813079574
0.017584397249093248,-0.020198190599428182,0.022866094917229407
0.030725156263355875,-0.009566054293362318,0.04597743123483013
0.06535851237063373,0.021555891458656017,0.06300038322147351
0.09616873828488164,0.05354791311341895,0.06190745958938398
0.10933451778470074,0.07948764854359583,0.052199098935554473
0.10709768637595153,0.10072323733475795,0.047176981562733276
0.09413207076058426,0.10971561520872823,0.04804065779882355
0.07466613299764381,0.10243470531927755,0.04844583924291528
0.05226279023037276,0.08701237091128813,0.04757150033724365
0.03746567507227124,0.07496516610405522,0.052332382305321494
0.039277158226560305,0.07031838710697967,0.06473839836323542
0.04991586868517506,0.06836788728104673,0.07678188365538306
0.06323177109833303,0.07070083805324104,0.08473090382828795
0.07994045135294953,0.08145727091684185,0.09112317424231407
0.09284601780298125,0.09060740980614493,0.09212013384817136
0.09174011234138489,0.08466985886543729,0.08349403415685003
0.07489131736765212,0.0648493385754422,0.06649773884416003
0.0517473682279093,0.04291577680735309,0.04265067832544539
0.031911127278732965,0.026680734138558267,0.018894250498172307
0.014056508785629748,0.014432742584538149,0.005347328795052716
-0.004178421087931947,-0.0023281701353660414,-0.002281811290411328
-0.019020573120035127,-0.026460824844457984,-0.016969638638736583
-0.03088528737091734,-0.04877683755880846,-0.039142660033177505
-0.03972252286946563,-0.0586297300618668,-0.05715190895609682
-0.036795126059357613,-0.050153660965349366,-0.05897522545450961
-0.0222281993683757,-0.028841581984934965,-0.04410613272330121
-0.013360939287159639,-0.01430366539017494,-0.024721399424386285
-0.01973615900695042,-0.017846117279920807,-0.009601733958015893
-0.027647636539908992,-0.026862398338032414,0.0005597901530214707
-0.025195628955374076,-0.02902802682123738,0.00046915746157989924
-0.022313269019267726,-0.033937740843867616,-0.018414430367011046
-0.030344844882897397,-0.050918562857872086,-0.0473369216064537
-0.04178921497643077,-0.06719663125812131,-0.06133700676678115
-0.046508078552382655,-0.06878380268510596,-0.05268425040150641
-0.04984080722850562,-0.060259927220305855,-0.03998501093010505
-0.05757714136256884,-0.049493933083048516,-0.03441376607384375
-0.0649181518248397,-0.03984660796360565,-0.027882880955259922
-0.06641437686111713,-0.03514724196141917,-0.013253698289632155
-0.05578067049961367,-0.03090203645791805,0.011185140390848053
-0.029974541696661514,-0.016497977694349505,0.04176034541540172
0.0014862168420548363,0.009838550592573539,0.06797451858117859
0.02637659587363987,0.037035593508584645,0.08134017490141504
0.0436307227133876,0.05443233092664835,0.08031655862160435
0.05685154728143096,0.06310440613312474,0.06877955013457136
0.05977894409153897,0.06516486060610782,0.0527162384102505
0.05016607354073985,0.06366374064203198,0.04448998882823022
0.04130882165374638,0.06349163771621437,0.05170328480002117
0.04158905109197894,0.057730970338152596,0.056501486111633775
0.044686587203871,0.041935746257558346,0.041925616793912816
0.037750908607615104,0.024180461077374614,0.015871383671856365
0.012805484507805812,0.005363874521315602,-0.008993961791878296
-0.022093088746370716,-0.018873954197998217,-0.025057273516199165
-0.05405926109332793,-0.0426384998713136,-0.0324145155273385
-0.07641756698659732,-0.05718597773973016,-0.042757305021259004
-0.07299476456247103,-0.05737242257603257,-0.05572844256698508
-0.03533392970285926,-0.04422567129829825,-0.054822115652569364
0.007406063724717703,-0.030218405391475866,-0.042645346990654705
0.024775284798025234,-0.022727147481581438,-0.03679154139048733
0.023724424404653128,-0.01258263613199881,-0.037623229617833515
0.020276601494970358,0.005985357308990315,-0.037873802352995506
0.006695481934913707,0.01841501306248458,-0.04162173071084402
-0.0175243480837577,0.012740397147331623,-0.04594011189129536
-0.024750264312468757,0.007127929510946135,-0.029962101523625384
-0.012069882232445338,0.013012893446542844,0.003993169758219824
-0.017299163713749392,0.0020126481047004177,0.013584241046654356
-0.05194252801524983,-0.03850802965169089,-0.018334460345150835
-0.07501141569832322,-0.06988334915560737,-0.0503437944283976
-0.056601342425866175,-0.06175626654755343,-0.047390234954360504
-0.020316634271860725,-0.02986463826618411,-0.023703114479366273
-0.0002852335353438575,-0.0017114679845195951,-0.003774585031801917
0.001000819422259149,0.011320548009336316,0.007826399472719228
-0.003923212135255864,0.011760366597536882,0.010934567655686062
-0.00604494931044526,0.00808405687659954,0.0035186809618492445
0.0029574213927757854,0.007639457651570707,-0.0074265493634181785
0.020541818641869034,0.014088536732902923,-0.009543089275318406
0.02957421392775785,0.027125333363587103,0.001631388445948286
0.01653854095283244,0.035572718639134936,0.01598867303725134
-0.015522709239239402,0.023654591026265243,0.018499731723661938
-0.04039807597949055,-0.0016923454372065269,0.010252156802478936
-0.030630078418241256,-0.011755585960708616,0.008588780347786564
0.0015212455218339064,0.004603753265621145,0.018121206953523608
0.01927578207271121,0.022158251699017664,0.01695364463436454
0.014762086478322448,0.01666529998333885,-0.006797451858117858
0.01158448481264965,0.002595885797748995,-0.026725981305682215
0.014526893914091548,-8.605146290880645e-05,-0.02444950135006157
0.006220092709340611,-0.0011616947492688872,-0.019752595399471894
-0.006260125486230977,-0.007993224776862467,-0.022023744020301862
-0.005114187247744251,-0.009427415825342574,-0.017028283321434072
-0.00046037693423920853,-0.00644429844450395,-0.007591820741929279
-0.006320174651566526,-0.008695978390617719,-0.006370945074863405
-0.012189980563116435,-0.010187537081037031,-0.007127994615140061
-0.0060549575046678515,-0.0036906516314221434,-0.0017220211373898575
0.007521157958277505,0.007916734587610195,0.007191970632628228
0.021567658549684662,0.02027946142550872,0.018462412380127174
0.03337232363523132,0.028530840591097607,0.03173743600892205
0.04302022286580952,0.034415804526694314,0.045817491191109706
0.05316352771040599,0.04328866647995792,0.054912748344010935
0.05656130964897581,0.04665901544388617,0.04488983893753127
0.03396280709436422,0.030997649194483393,0.01487975540078976
-0.015142397858780925,-0.0020939189307809573,-0.017961266909803188
-0.054474601153565484,-0.03452575917374446,-0.04301854042600235
-0.044686587203871,-0.04581762336211117,-0.05641618475498289
0.007015744150036635,-0.03294336838358807,-0.053206721210993124
0.050851634844987365,-0.011454405840527792,-0.035501358371142606
0.05180741739324485,0.0027632080867383405,-0.011510351813079574
0.01839506098112316,0.004785417465095292,0.00933516721848186
-0.018219917582227806,-0.0012907719436320967,0.017849308879198895
-0.03607453607533102,-0.011296644825194982,0.012725896145354767
-0.04138388311041581,-0.024873653417473333,0.0017220211373898575
-0.04993588507362024,-0.04021949763621049,-0.008167604899322792
-0.0590383377190672,-0.05174083239233401,-0.015658130280229138
-0.05706171936010538,-0.054475356658102755,-0.024252241962806384
-0.04871988947557537,-0.05141096845118359,-0.03973976952973374
-0.05036123332808038,-0.05132969762510305,-0.05993486571683213
-0.062130869733847974,-0.055885644522441526,-0.069653889040243
-0.06605908596621513,-0.05707602309268001,-0.06000417306911098
-0.050716524222982375,-0.04715620167402594,-0.04162173071084402
-0.02529571089759999,-0.02948696795675101,-0.028154779029584638
-0.008662092099652935,-0.014375374942598945,-0.020232415530633156
-0.009077432159890481,-0.005784570562203101,-0.010044234745642389
-0.017519343986646403,-0.004823662559721428,0.0011302429756243028
-0.01579293048324937,-0.013170654461875654,-0.0005491274834401094
0.0018815405138472002,-0.023458584916306292,-0.016505812511947365
0.015427631394124782,-0.02495492424355387,-0.02857062314325773
0.005759715775101403,-0.022215619340956866,-0.029962101523625384
-0.021517617578571704,-0.029353110125559537,-0.03623708257225654
-0.049705696606500635,-0.0443786516768028,-0.05140473005174306
-0.06028936199689114,-0.04740001415226756,-0.053761180029223914
-0.04779413150998566,-0.03326367105108196,-0.03179074935682886
-0.03401785216258847,-0.02242118672457235,-0.002665667395340337
-0.0338727333463609,-0.023649810389436976,0.014096049186559701
-0.03400784396836588,-0.02426651254028342,0.017684037500687793
-0.021337470082565056,-0.019504998259329463,0.021597237237047408
-0.001120917752930247,-0.012726055236846822,0.034333796051983535
0.015167418344337403,-0.0029400916493842206,0.0451564056770653
0.02527569450915481,0.007978882866377665,0.03786847101820482
0.0315208077040519,0.016177675026855614,0.017246868047851978
0.02883861165239738,0.024452957376585836,0.004968804024914388
0.01671368435172779,0.037064277329554245,0.007741098116068338
0.015807942774583257,0.0515687294665164,0.011286435751870987
0.041934333792658346,0.05850543350433186,0.009015287131041019
0.07153356820597268,0.05662186259399465,0.015167647479486516
0.0724543220744511,0.059217748391743645,0.04080603648786987
0.05213268370547907,0.06890809924264091,0.07334317271539402
0.0394022606543427,0.0725174800479825,0.09282387004054121
0.044086095550515514,0.06619269752418523,0.0946205298650006
0.056996666097658535,0.05724812601849763,0.08506144658531015
0.06674965136757394,0.05002936440781442,0.07019235385410175
0.0669297988635806,0.04573635253603063,0.05538190580559084
0.06047451359000908,0.046506035065381625,0.04596676856524877
0.05167731086835116,0.050211028607288564,0.04219751486823753
0.032176344425631644,0.04502881828544711,0.03317156506761515
0.0003352745064568149,0.022043516415139255,0.011968846605078113
-0.018069794668888934,-0.005230016690124126,-0.004478321224171766
-0.0016613602409501873,-0.009427415825342574,0.0010182849450200086
0.03147577083005024,0.010230562812491434,0.015188972818649239
0.04663318098016505,0.02062366727714395,0.014037404503862214
0.03742063819826958,0.00652556927058449,-0.004995460698867791
0.02581113290006345,-0.010326175549056774,-0.024198928614899577
0.021902933056141476,-0.013041577267512445,-0.02983948082343973
0.008301797107639642,-0.012128475633313443,-0.029428968044557316
-0.02419480953311493,-0.02329126262731695,-0.03687684274713822
-0.05471479781490768,-0.04351335641088647,-0.04893099070886722
-0.06729509795270518,-0.05824249847877717,-0.053489281954899194
-0.06898648277632315,-0.059528489785581,-0.04753951232849957
-0.06219592299629482,-0.04378585271009768,-0.03498955023123726
-0.04565237794635108,-0.013715647060298096,-0.02224232874671977
-0.03259668858298048,0.01144484456687126,-0.015727437632507987
-0.023504244131756113,0.019634075453692675,-0.011766255883032246
0.0033227204819003746,0.02611661899282276,-0.0003838561049290085
0.043940976734287936,0.03915341562350694,0.014373278595675096
0.06577385243087128,0.04195486880487141,0.01748144677864193
0.05793243225747084,0.026848056427547614,0.007565164067975876
0.03447322499971639,0.0043790633346925956,-0.003252114222315211
0.0015862987842807511,-0.02242118672457235,-0.012720564810564087
-0.03969750238390914,-0.05517332963502974,-0.026933903362518764
-0.07023250295703579,-0.07721206541334073,-0.03806573040546001
-0.0670398890000291,-0.06832008091276406,-0.03163080931310844
-0.03783597825850713,-0.037628392475289756,-0.011105170368987843
-0.012245025631340688,-0.013251925287956195,0.005512600173563816
-0.005189248704413688,-0.009924602055482344,0.00515006940779753
-0.010423534282829036,-0.021527207637686414,-0.011590321834939785
-0.019726150812727827,-0.03235056941688296,-0.031241621873388747
-0.02882359936106349,-0.03510899686679304,-0.04091266318368349
-0.03365255307346388,-0.03836461054684288,-0.043269113161164344
-0.03735058083871144,-0.0466972605385123,-0.04548161709929682
-0.046127767171924176,-0.04797847120848787,-0.04419676541474278
-0.05279322452417011,-0.03566355073887201,-0.03545337635802648
-0.04926533606070661,-0.024419492918787967,-0.026763300649216983
-0.040578223475497194,-0.025031414432806143,-0.027408392158889343
-0.024269870989784365,-0.023057011422731862,-0.02927969067041826
0.006815580265584805,-0.0031074139383735666,-0.014048067173443575
0.03852654365986594,0.02538996219492617,0.016441836494459197
0.05461471587268176,0.04777768446170065,0.04380224664023241
0.06236105820096757,0.0621674013147844,0.0615715854975711
0.07249935894845276,0.06827705518130965,0.0725221471576292
0.0824475040057087,0.06769859812508934,0.07657396159854651
0.08426399125710905,0.06463420991817018,0.0748679344655287
0.07560690325456741,0.06075711345044563,0.0724954904836758
0.0685661386189743,0.06372588892079945,0.07477197043929644
0.07599221873213718,0.08012347324175534,0.08199592908066876
0.09116464117358589,0.10180844189477457,0.09238136925291471
0.09922123752277204,0.11552886959190094,0.10390771507036632
0.0965490496653401,0.116461093773413,0.1110303783507157
0.09163502630204769,0.11079125849508831,0.11178209655620168
0.0898485636333151,0.10558036435227726,0.10854064500346783
0.07858934513289968,0.09377697202328597,0.09958933388991498
0.04387592347184109,0.06301357403338766,0.08058845669592907
-0.005219273287081462,0.018185542494727765,0.04916556943965717
-0.04818945518177802,-0.025466452384178443,0.008647425030484053
-0.0730297932422501,-0.057898292627141947,-0.028090803012096467
-0.07735333314640963,-0.07271348615794146,-0.05057304182439687
-0.06713997094225502,-0.07192946171810566,-0.06351219136137887
-0.05555048203249407,-0.06632177471854844,-0.07311392531939476
-0.050131044860960775,-0.061751485910725164,-0.07813604269221595
-0.04679331208772651,-0.059853573089903155,-0.0806630953829986
-0.04673826701950226,-0.06543735690531904,-0.08606373752595811
-0.05708673984566186,-0.07682961446707937,-0.09112850557710475
-0.0689114213196537,-0.0798557575793724,-0.08268367126866656
-0.06766039704182977,-0.06649387764436605,-0.0574611263739563
-0.059358599934190126,-0.050918562857872086,-0.03496289355728386
-0.05743202254634126,-0.05104285941540703,-0.03383265058165955
-0.06053956685245592,-0.06255941353470229,-0.046510564713898195
-0.06152537398338118,-0.06764123048315014,-0.05392645140773501
-0.0570366988745489,-0.05988703754770103,-0.05296147981062181
-0.042269608299115156,-0.0448280315386599,-0.04933084081816827
-0.018785380555804226,-0.02470155049165572,-0.04007564362154662
-0.00016013110756146385,-0.002242118672457235,-0.02549444296903498
0.0020716962040764385,0.010493497838046121,-0.01821717097975586
-0.01188973473643869,0.007605993193772837,-0.022284979425045214
-0.025340747771601654,0.0016397584320955896,-0.02374576515769172
-0.02006642941629594,0.002433344145587916,-0.01385080778618839
-0.004333548098382115,0.004331256966409925,0.0006290975053003195
0.001631335658282413,0.00226602185659857,0.012939149536981994
-0.0037780933190282875,-0.0008079276239771273,0.023004709621787106
-0.009813034435250957,0.0016062939742977206,0.030980386468645392
-0.0067555311002492555,0.013165873825047388,0.03603982318500135
0.011339284054196158,0.030347482585839077,0.03770319963969372
0.04148896914975302,0.048313115786466555,0.036700908699045756
0.07283463345490956,0.06631699408172018,0.03988371556908212
0.08959835877775031,0.07764232272788475,0.049426804844400526
0.0853849090100393,0.07181950707105553,0.05467283827843031
0.07342011281693117,0.053394932734914406,0.05022117372821194
0.06269633270742439,0.034095501859200426,0.03919597338108431
0.04670824243683448,0.014327568574316276,0.02073889233574782
0.021647724103465393,-0.010388323827824246,-0.004979466694495749
-0.005944867368219345,-0.03291946519944674,-0.02611820913954462
-0.025335743674490357,-0.03797259832692498,-0.027467036841586828
-0.026781927739654827,-0.022282548256552605,-0.009607065292806574
-0.013836328512732735,-0.003528109979261065,0.007106669275977338
-0.0064652934677941025,0.0007123148874117868,0.006856096540815346
-0.010088259776372222,8.605146290880645e-05,0.0017326838069712189
-0.010468571156830699,0.01264956504759455,0.010657338246570666
-0.014096541562520114,0.02365937166309351,0.02327660769611182
-0.037440654586714764,0.004326476329581658,0.013120414919865138
-0.05946869007063863,-0.03170996408189518,-0.014943731418277928
-0.049410454876934184,-0.04440255486094413,-0.02746170550679615
-0.021892924861918885,-0.03138966141440129,-0.01773201951380392
-0.009252575558785833,-0.018524967709534722,-0.010881254307779255
-0.013070701654704486,-0.013094164272623382,-0.018483737719289895
-0.019931318794290952,-0.013859066165146107,-0.03449906743049464
-0.02680194412810001,-0.02533259455298697,-0.052902835127924326
-0.03371760633591073,-0.04060194858247185,-0.06511692313337375
-0.03287691802121304,-0.045162676116638586,-0.06518089915086192
-0.017754536550877303,-0.033626999450030254,-0.05366521600299166
0.001356110317161147,-0.01578088217010945,-0.03720205416936974
0.010873903022845653,-0.005746325467576964,-0.025856973734801267
0.015217459315450361,0.0011569141124406202,-0.01558882292795029
0.02129743730567469,0.015369747402878487,0.0016847017938550928
0.02294878935240229,0.028569085685723743,0.01756674813529282
0.01876036007024775,0.03173386726603651,0.026235498504939593
0.01584297145436233,0.02892763344784377,0.032121292113851056
0.013781283444508482,0.02357810083701297,0.03363005985961369
0.00866709619676423,0.015259792755828346,0.0283573697516305
0.0016813766293953703,0.005363874521315602,0.018723647784870526
-0.001961606067627932,-0.0008557339922597976,0.007314591332813884
0.005584572376206052,0.001501119964075846,0.0011728936539497482
0.023163965528188005,0.01124883845691231,0.008578117678205203
0.035243855954855935,0.022416406087744083,0.024817363450618534
0.029143861576186418,0.02383147458891112,0.029343666687906427
0.010363485117493488,0.008542998012113175,0.011563665160986381
-0.002061688009853847,-0.011927688886526228,-0.009047275139785102
0.0007305981782491788,-0.022884908496914252,-0.015620810936694374
0.006165047641116358,-0.025705484225591796,-0.01986988476486687
0.003888183455476794,-0.02828224747602772,-0.032238581479246034
-0.0019165691936262703,-0.03150917733510796,-0.041994924146191666
-0.010003190125480194,-0.030586514427252427,-0.04076338580954443
-0.022423359155716235,-0.024366905913677028,-0.03640768528555832
-0.03195116005562333,-0.01906039903430063,-0.03439244073468103
-0.03369758994746555,-0.01881658655605901,-0.03276105228873274
-0.03345739328612335,-0.019375921064966252,-0.032078641435525614
-0.03614459343488917,-0.01852974834636299,-0.03154017662166687
-0.04159905928620153,-0.023386875363882287,-0.030132704236927165
-0.0448116896316534,-0.03485562311489488,-0.02889583456548925
-0.03910701892477625,-0.03595995022222456,-0.022919408265136214
-0.022748625467950458,-0.01448054895282082,-0.004712899954961715
0.0011259218500415426,0.015078128556354198,0.019901872773610954
0.02271359678817139,0.03289078137847713,0.03538940034053831
0.02818807902792893,0.03772878584868336,0.03896139465029436
0.015142397858780925,0.03571135710715468,0.040182270317360234
-0.0025821141094286046,0.029367452036044336,0.0427039916733522
-0.01181967737688055,0.02317174670661027,0.04317848046972277
-0.008446915923867218,0.023683274847234842,0.042735979682096276
0.00695069088758979,0.031633473892642906,0.04472456755902017
0.02529571089759999,0.03911995116570907,0.04655854672701432
0.035584134558424046,0.03886179677698265,0.04534300239473913
0.04242473530956533,0.03547232526574133,0.04148311600628632
0.0591484278555157,0.03744672827581561,0.03614644988081497
0.08215226227614225,0.0421891200094565,0.03055921102018162
0.08734151098055594,0.03922512517593094,0.02018976485230771
0.06178558703316856,0.02367371357357831,0.001828647833203471
0.02370941211331924,0.0025863245240924605,-0.01306710157195833
-0.0034428188125714726,-0.012740397147331623,-0.013728187086002734
-0.020952154604995284,-0.017272440860528763,-0.006141697678864136
-0.039567395859015454,-0.012415313843009465,0.0006184348357189581
-0.04799429539443749,-0.0025385181558097904,0.006642843149188119
-0.02981441058910005,0.005751106104405232,0.012086135970473087
0.0005904834591328979,0.010746871589944272,0.015210298157811962
0.018079802863111526,0.017975194474284015,0.019086178550636813
0.021842883890805926,0.026207451092559834,0.02360181911834334
0.02390957599777107,0.028411324670390932,0.024577453385037903
0.02688701377899204,0.023845816499395923,0.02104277841881662
0.0245801250106847,0.015092470466838998,0.014826442052882954
0.01574789360924771,0.006391711439393013,0.01116381505168533
0.009082436257001777,0.0036380646263112063,0.013888127129723154
0.013991455523182903,0.008155766429023546,0.021538592554349922
0.027502517723681414,0.015336282945080618,0.029738185462416796
0.03088528737091734,0.016378461773642827,0.03223325014445535
0.010228374495488503,0.002203873577831099,0.024060313910341878
-0.024399977514678053,-0.025366059010784838,0.0025590406995267233
-0.04841964364889763,-0.04816491604479028,-0.025382484938430688
-0.04426624304652216,-0.049011088763393544,-0.040544801083126525
-0.015597770695908838,-0.031528299882421035,-0.03461635679588961
0.017529352180868995,-0.011114980625720835,-0.020877507040305516
0.039026953370995515,0.005516854899820147,-0.009809656014852439
0.046112754880590294,0.02010735849969111,0.003540006301011967
0.04369577597583445,0.03377519919170653,0.022050400694255266
0.035844347608211424,0.04161066295323619,0.03521879762723653
0.02021655232963481,0.034162430774796165,0.030815115090134293
-0.0016163233669485256,0.013835162981004772,0.01393610914283928
-0.01885043381825107,-0.005708080372950828,-0.00038918743971968914
-0.029314000877970474,-0.020528054540578607,-0.01283252284116838
-0.04111866596351714,-0.034573565542027125,-0.02983948082343973
-0.05190249523835947,-0.04541604986853674,-0.04253872029484109
-0.050456311173195,-0.04486627663328603,-0.03917997937671227
-0.037545740626051975,-0.02995547036592118,-0.02183714730262804
-0.024855350351805965,-0.012386630022039862,-0.006680162492722884
-0.015132389664558333,-0.005861060751455373,-0.006051064987422565
-0.0028323189649933915,-0.005186990958669722,-0.010982549668802187
0.007381043239161224,-0.0015871714269846523,-0.011574327830567742
0.0025671018180947174,-0.005124842679902251,-0.019347413955380165
-0.018495142923349073,-0.023535075105558564,-0.04313582979139733
-0.0384564863003078,-0.03929205409152668,-0.06445050628453866
-0.04059823986394238,-0.034731326557359936,-0.0628937565256599
-0.027427456267011978,-0.018768780187776342,-0.04645192003120071
-0.011404337316643002,-0.008418701454578232,-0.03499488156602794
0.00015012291333887234,-0.005956673488020713,-0.032489154214408025
0.006400240205347258,-0.004737611096812622,-0.03176942401766613
0.011029030033295821,-0.0014915586904193118,-0.029263696666046217
0.018024757794887273,0.0021895316673462978,-0.021954436668023013
0.02600128859029269,0.0040348574830573695,-0.008887335096064682
0.029784386006432274,0.0023233894985377744,0.000522470809486706
0.025300714994711287,-0.004608533902449413,0.0005118081399053447
0.011634525783762607,-0.01301767408337111,0.0015780750980414794
-0.005499502725314024,-0.013510079676682614,0.010795952951128365
-0.012900562352920432,-0.006023602403616452,0.01913949189854362
-0.0014061512882741045,-0.00023903184141335127,0.020834856361980073
0.016223282834820805,-0.00075534061886619,0.019416721307659014
0.017244118645525136,-0.005201332869154524,0.017929278901059106
0.0063001582631213434,-0.0065781562756954265,0.018254490323290625
0.004929035654626309,-0.0016827841635499929,0.014266651899861482
0.01026840727237887,0.0017927388106001344,0.0027936194303166727
0.005414433074421996,-0.0019218160049633442,0.0006024408313469161
-0.0017964708629551725,-0.004895372112145434,0.015972679032879297
0.008186702874079839,0.0029878980176668906,0.03125761587776079
0.02624148525163489,0.015852591722533456,0.0353094303186781
0.03341736050923298,0.022411625450915816,0.03834829114936608
0.030720152166244578,0.023253017532690812,0.044943152285438076
0.020546822738980328,0.019681881821975344,0.04171236340228559
0.0020666921069651427,0.009494344740938312,0.020664253648678292
-0.014096541562520114,0.0036906516314221434,-0.004483652558962446
-0.015302528966342389,0.015852591722533456,-0.01685768060813229
-0.007145850674930324,0.03423892096404844,-0.01615927575055312
-0.011769636405767593,0.037131206245149984,-0.008818027743785834
-0.030950340633364184,0.026183547908418498,0.0021485279206443116
-0.03781596187006195,0.015030322188071528,0.01163830384805591
-0.024384965223344164,0.006821968753937045,0.013333668311492365
-0.008767178138990145,0.0014246297748235735,0.006509559779421102
-0.0009757989367026703,-0.001099546470501416,-0.005907118948074186
0.0019515978734053407,-0.004857127017519298,-0.02193311132886029
0.006730510614692777,-0.011937250160182763,-0.03558132839300281
0.016143217281040075,-0.015441456955302493,-0.034882923535423646
0.025726063249171427,-0.004876249564832366,-0.017769338857338685
0.031575852772276154,0.01653622278897564,0.00040518144409173117
0.03216633623140905,0.03125580358320981,0.006349619735700682
0.02905879192529439,0.03286209755750753,0.003966513084266421
0.02870850512750369,0.03362221881320199,0.005501937503982455
0.031050422575590098,0.04043940693031077,0.015226292162184003
0.027587587374573442,0.04506706338007325,0.029583576753487058
0.0165835778268341,0.03920122199178961,0.0467024927663627
0.00604494931044526,0.027067965721647897,0.06171020020212879
0.005999912436443599,0.02317652734343854,0.06416794554063258
0.018610237156908876,0.03262784635292245,0.0501785230498865
0.030585041544239595,0.04087444488168307,0.02819742970791008
0.02819308312504023,0.03574004092812428,0.012715233475773406
0.010858890731511767,0.01965319800100574,0.009191221179133482
-0.014636984050540053,-0.003748019273361348,0.0033267529093847403
-0.03573425747176292,-0.030925939642059388,-0.019891210104029593
-0.04272998523335437,-0.05134403953558785,-0.045700201825714735
-0.03919709267277957,-0.05324673299323813,-0.045449629090552744
-0.032191356716965526,-0.03950240211197043,-0.021725189272023746
-0.016278327903045058,-0.022655437929157432,0.0009116582492063952
0.016138213183928777,-0.007888050766640592,0.013872133125351113
0.04706853742884778,0.0007123148874117868,0.020840187696770752
0.04494179615654709,-0.0013768234065409033,0.020573620957236718
0.0012710406662691193,-0.013361879935006336,0.00767712209858017
-0.06229600493852073,-0.03156654497704717,-0.014810448048510911
-0.11106593538520906,-0.04783505210363986,-0.03175876134808477
-0.11531441383269915,-0.05085163394227635,-0.033459457146311905
-0.06958697442967864,-0.033703489639282526,-0.022519558155835166
-0.008992362508998455,-0.0065781562756954265,-0.006274981048631153
0.021632711812131507,0.009986750334249816,0.008380858290950019
0.017644446414428798,0.009408293278029506,0.018856931154637543
0.00255208952676083,-0.00037288967260482795,0.02136265850625746
-0.0071208301893738455,-0.008586023743567577,0.015002376100975415
-0.009097448548335664,-0.011521334756123531,0.006296306387793876
-0.009903108183254279,-0.015771320896452917,-0.003694615009941707
-0.012280054311119759,-0.024357344640020494,-0.017721356844222557
-0.013821316221398847,-0.0302136247546476,-0.031076350494877645
-0.017814585716212854,-0.027875893345625024,-0.037553922265554665
-0.027997923337699692,-0.02346336555313456,-0.04079004248349783
-0.03612958114355528,-0.026456044207629717,-0.047779422394080194
-0.0294040746259738,-0.03447795280546179,-0.05590970794986822
-0.008026571766518375,-0.03621332397412272,-0.05644284142893629
0.012245025631340688,-0.027617738956898605,-0.046185353291666675
0.01898054034314476,-0.014815193530799511,-0.02842134576911867
0.015292520772119797,-0.0039009996518658925,-0.008684744374018817
0.004919027460403717,-5.73676419392043e-05,0.0036413016620349
-0.017249122742636434,-0.00904974551590948,0.0018019911592500677
-0.04120373561440917,-0.021474620632575478,-0.0016687077894830507
-0.034948614225289484,-0.01284079052072523,0.01488508673558044
0.006325178748677822,0.01899347011870489,0.04654788405743296
0.046438021192824516,0.04696497620089526,0.06613520807839375
0.06148033710937952,0.05510162008260573,0.06546879122955868
0.06165548050827487,0.05036400898579311,0.057167902960468864
0.06370716032390614,0.04328388584312965,0.04648923937473547
0.06688476198957893,0.04019081381524088,0.034216506686588564
0.061400271555598795,0.043977078183228366,0.03217993679654855
0.04819946337600062,0.052051573786171375,0.04997593232784063
0.03425304472681937,0.05345230037685361,0.07238886378786219
0.02444001029156842,0.042040920267780224,0.07543838728813153
0.021802851113915563,0.028196196013118915,0.05977492567311171
0.02415477675622456,0.02186185221566511,0.04299188375204895
0.023654367045094986,0.01981095901633855,0.033784668568543424
0.006675465546468524,0.011401818835416855,0.024017663232016435
-0.033877737443472195,-0.012448778300807335,-0.0015940691024135213
-0.07463110431786474,-0.045521223878758614,-0.039601154825176045
-0.08309303253306585,-0.0683583260073902,-0.07106669275977338
-0.06711995455380983,-0.07706386567166444,-0.09274923135347167
-0.05371397839264853,-0.08201182478892081,-0.10508060872431607
-0.04183425185043243,-0.08003264114201827,-0.0957774295145783
-0.023874547317992,-0.06675681266992074,-0.07032563722386877
-0.008652083905430343,-0.054250666727174206,-0.05724254164753839
-0.007706309551395447,-0.051841225765727625,-0.06802783192908539
-0.025245669926487035,-0.05033532516482351,-0.08175068768029745
-0.044236218463854386,-0.035706576470326414,-0.07395094488153162
-0.040978551244400856,-0.011597824945375803,-0.04661186007492113
-0.021567658549684662,0.00559334508907242,-0.016596445203388936
-0.007711313648506743,0.013357099298178068,0.009932276715038095
-0.006700486032025003,0.02078142829247676,0.02880520187404768
-0.010798841566176217,0.02662814713344733,0.03298496834994133
-0.004463654623275804,0.028373079575764796,0.027019204719169652
0.02066692106965143,0.035022945403884224,0.024193597280108895
0.05223776974481628,0.05120540106756811,0.03626907058100062
0.06972208505168362,0.06818144244474432,0.06224333368119686
0.06686974969824504,0.07628462186865692,0.08473090382828795
0.05265811390216513,0.07391820663866475,0.0914163976558015
0.040978551244400856,0.06797587506112883,0.09001958794064317
0.045217021497668354,0.06815753926060299,0.08871874225171708
0.062100845151180195,0.07067215423227144,0.07951152706821156
0.06553865986664037,0.05672225596738826,0.053462625280945794
0.03847149859164169,0.01970578500611668,0.015962016363297936
-0.009923124571699462,-0.025026633795977877,-0.02493998415080419
-0.062456136046082196,-0.06344383134793169,-0.07289534059297685
-0.09582845968131352,-0.09219458123312958,-0.12342573173904828
-0.09010877668310248,-0.104949320290946,-0.15016770704910254
-0.06388230372280149,-0.0960190906957432,-0.13924380206299783
-0.05678649401898411,-0.07823990233141814,-0.1142558358990775
-0.07566194832279166,-0.06941962738326547,-0.10342256360441439
-0.09226554253807094,-0.06751215328878693,-0.10085819157009698
-0.08394372904198612,-0.06266458754492417,-0.0897636838706905
-0.061805603421613745,-0.055503193576180165,-0.07346579341557968
-0.047328750478635155,-0.04859517335933431,-0.054891423004848214
-0.03789102332673138,-0.040286426551806226,-0.031876050713479744
-0.025395792839825907,-0.029525213051377147,-0.013088426911121054
-0.015857983745696216,-0.015336282945080618,-0.002185847264179076
-0.009732968881470225,0.0009035403605424678,0.007495856715697027
0.0007556186638056575,0.011583483034891002,0.01353625903353823
0.012184976466005139,0.011062393620609897,0.009900288706294011
0.017018934275516828,0.005990137945818583,0.004041151771335951
0.01714904080041052,0.007080123142663464,0.00530467811672727
0.013000644295146345,0.013285389745754063,0.00926585986620301
-0.00039532367179236387,0.012859913068038298,0.007815736803137867
-0.020266593300747766,0.0003967928567461631,0.0027669627563632697
-0.03495361832240078,-0.012558732947857476,-0.0006077721661375968
-0.03664500314601874,-0.012606539316140145,-0.0014661170674371852
-0.029899480239992077,-0.004097005761824841,-0.0020045818812959334
-0.025490870684940527,-0.0010373981917339444,-0.006376276409654085
-0.025936235327845846,-0.004173495951077113,-0.012544630762471625
-0.02638159997075117,-0.0036285033526546723,-0.015231623496974683
-0.024384965223344164,0.00012429655753494267,-0.0175720794700835
-0.018515159311794257,-0.003222149222251975,-0.023969681218900307
-0.005014105305518337,-0.01523588957168701,-0.03151351994771346
0.013085713946038373,-0.023530294468730298,-0.03325686642426604
0.02242836325282753,-0.01763098862264879,-0.024556128045875182
0.019611056579168024,-0.00151068123773238,-0.008268900260345725
0.015012291333887236,0.011616947492688871,0.005278021442773867
0.018365036398455385,0.01808036848450589,0.011537008487032978
0.03363754078213,0.026795469422436678,0.019512685333891264
0.05097173317565846,0.03749453464409828,0.03469099548295914
0.058492891133935965,0.043886246083491294,0.05151135674755667
0.06272135319298087,0.05067475037963047,0.06749469845001732
0.07176375667309227,0.06117780949133313,0.08244909253787662
0.07884455408557577,0.06992159425023352,0.09319706347588885
0.08100131994054423,0.07593563538019343,0.1009648182659106
0.08732149459211075,0.0831304938067353,0.10802350552877181
0.09766996741827036,0.09153485335082874,0.11186206657806189
0.10236381050866576,0.0981655966316351,0.11381333511145102
0.10421032234273389,0.10426090858767556,0.12255139283337664
0.10867898106312099,0.11090599377896672,0.13637021261082094
0.1100801282542838,0.11267482940542552,0.14308236311228792
0.10716273963839838,0.10808541805028918,0.1434235685388915
0.10042222082948302,0.09803651943727189,0.13849208385751186
0.08250254907393295,0.07908129441319313,0.11899539252799263
0.051246958516779725,0.05203723187568657,0.088937326978135
0.015522709239239402,0.022120006604391527,0.059332424885485215
-0.0124652059042377,-0.00470892727584302,0.030756470407436804
-0.028158054445261156,-0.0221964967936438,0.0051180813990534466
-0.03764582256827789,-0.02931008439410513,-0.012304720696890994
-0.04737879144974812,-0.03309156812526435,-0.0264274265574041
-0.05628608430785454,-0.04097005761824841,-0.04574818383883086
-0.0625662261825307,-0.05317024280398586,-0.07066151131568164
-0.06987721206213378,-0.06723009571591917,-0.0988962603671265
-0.075041440280991,-0.0786223532776795,-0.12313783966035152
-0.06765038884760717,-0.07949720981725236,-0.13019119558842204
-0.05180741739324485,-0.06893200242678224,-0.11865418710138907
-0.04455147658186602,-0.058151666379040096,-0.10176984981930337
-0.05286828598083955,-0.06180885355266437,-0.09296781607988959
-0.06701486851447262,-0.08168674148459866,-0.09578809218415966
-0.07967523420605085,-0.10420354094573635,-0.10475539730208455
-0.09814035254673215,-0.11703955082963331,-0.1119953499478289
-0.1184219581388138,-0.11553843086555747,-0.10822609625081767
-0.1161851267300646,-0.09914084654460158,-0.08855880220799667
-0.08269770886127348,-0.073779568170645,-0.06226999035515027
-0.03758577340294234,-0.04794978738751826,-0.041515104015030405
-0.0037730892219169916,-0.023186088617095073,-0.023953687214528264
0.006355203331345596,-0.0018118613579132027,-0.0054006421429595225
-0.005369396200420334,0.006726356017371705,0.004105127788824119
-0.020491777670756075,0.0007983663503205932,-0.004616935928729463
-0.0223482976990468,-0.008385236996780362,-0.020914826383840283
-0.014767090575433744,-0.012544391037372675,-0.026821945331914468
-0.009282600141453608,-0.011483089661497395,-0.01963530603407692
-0.004438634137719326,-0.003752799910189615,-0.005901787613283506
0.002276864185639564,0.006257853608201536,0.005517931508354497
0.0017814585716212853,0.006243511697716735,0.0030601861698507067
-0.006850608945363875,-0.001874009636680674,-0.009884294701921969
-0.013981447328960311,-0.0068171881171087785,-0.01894223251128843
-0.01537258632590053,-0.0089015457742332,-0.019523348003472628
-0.00859703883720609,-0.00787370885615579,-0.012326046036053718
0.00466882260483893,0.0010708626495318137,-0.0015407557545067147
0.014611963564983576,0.011162786994003504,0.0043983512023115555
0.018219917582227806,0.013189777009188722,0.0028469327782234795
0.019365855820714532,0.008858520042778798,-0.0022444919468765636
0.018234929873561696,0.006678549649089034,-0.003054854835060026
0.012815492702028404,0.007897612040297125,0.001455454397855824
-0.004253482544601383,-0.0019744030100742813,-0.0035613316401746898
-0.03155583638383097,-0.0226458766555009,-0.01978458340821598
-0.04048814972749387,-0.02661380522296253,-0.020163108178354306
-0.013946418649181242,-0.005884963935596709,0.0064615777663049765
0.02513057569292723,0.017363272960265835,0.03380066257291547
0.051837441975912626,0.02880333689030883,0.03894540064592232
0.062791410552539,0.0324174983324787,0.029503606731626848
0.06234604590963369,0.03541017698697386,0.02375642782727308
0.05462972816401565,0.039593234211707504,0.02745104283721479
0.04294015731202879,0.04298270572294882,0.03578925044983936
0.027042140789442205,0.042241707014567434,0.04228281622488842
0.006260125486230977,0.03537193189234772,0.043423721870094086
-0.004448642331941918,0.03133707440929035,0.048099302481521035
0.01598308617347861,0.04368067869987581,0.06764930715894707
0.0545696789986801,0.06420395260362614,0.0897370271967371
0.07579705894479664,0.07155657204550084,0.09454589117793107
0.07183881812976171,0.0644716682660091,0.08668750369646776
0.06313168915610712,0.05826640166291851,0.08290225599508447
0.06406745531591942,0.05955239296972233,0.08596777349972586
0.06656950387156729,0.05769272524352646,0.08268900260345724
0.05476984288313193,0.047060588937460596,0.0690994302220122
0.02902376324551532,0.04059716794564358,0.06109709670120052
0.00722091213159976,0.044440799955570265,0.06594328002592925
0.003968249009257526,0.04802627757677053,0.0705655472894494
0.016738704837284266,0.03979402095849472,0.05811688055321002
0.03345739328612335,0.01854887089367606,0.024897333472478744
0.04287510404958195,-0.0027679887235666075,-0.009937608049828775
0.041859272335988906,-0.009881576324027941,-0.026464745900938863
0.03290193850676952,-0.005535977447133215,-0.031012374477389477
0.007991543086739305,-0.0053399713371742675,-0.037004794782114554
-0.03276682788476454,-0.014628748694497097,-0.043194474474094816
-0.05486492072824655,-0.022975740596651324,-0.04555092445157567
-0.04247978037778958,-0.02735480393134392,-0.048584453947472975
-0.028668472350613323,-0.03413374695382656,-0.05515798974438225
-0.026076350046962127,-0.03595995022222456,-0.05513133307042885
-0.016738704837284266,-0.023276920716832145,-0.03929726874210725
-0.005184244607302392,-0.0070084135902394595,-0.016761716581900038
-0.007941502115626347,-0.0038531932835832224,-0.004958141355333026
-0.021352482373898946,-0.01346705394522821,-0.006664168488350842
-0.026811952322322603,-0.020336829067447926,-0.0075011880504877075
-0.014321725932528423,-0.0146717744259515,0.0015460870892973952
0.006810576168473509,-0.0031743428539693047,0.011419719121638002
0.022033039581035165,0.006434737170847416,0.00910591982248259
0.025575940335832555,0.015207205750717408,-0.002319130633946093
0.020937142313661398,0.021264272612131728,-0.006664168488350842
0.016038131241702863,0.019098644128926767,-0.0006610855140444036
0.012745435342470263,0.011306206098851515,0.0047768759724498835
0.007511149764054913,0.008122301971225676,0.010870591638197893
0.0043285440012708195,0.015532289055039566,0.024118958593039367
0.007476121084275843,0.026283941281812107,0.033523433163800076
0.012240021534229392,0.02945828413578141,0.025355828264477284
0.015152406053003517,0.023391656000710553,0.0042650678325445385
0.016513520467275958,0.012716493963190287,-0.014026741834280852
0.015102365081890558,0.005148745864043586,-0.0167723792514814
0.008481944603646287,0.005325629426689466,-0.006072390326585287
-0.004013285883259187,0.007797218666903518,0.002873589452176883
-0.016968893304403872,0.004990984848710775,0.0035719943097560513
-0.02102721606166472,-0.004058760667198705,0.0010236162798106894
-0.014391783292086563,-0.014150685011670395,-0.002969553478409135
-0.003688019571024964,-0.01844847752028245,-0.007479862711324985
0.00731598997671438,-0.014356252395285877,-0.007000042580163724
0.012740431245358967,-0.011052832346953362,-0.0045689539156133375
0.004608773439503382,-0.019634075453692675,-0.011179809056057373
-0.003808117901696062,-0.02740261029962659,-0.018505063058452616
0.00718588345182069,-0.01574741771231158,-0.00831688227346185
0.022668559914169724,0.005411680889598273,0.012843185510749743
0.016918852333290914,0.018300277778606173,0.028538635134513646
-0.001115913655818951,0.020274680788680454,0.036354371937651515
-0.011659546269319086,0.01293640325729057,0.033182227737196514
-0.01491220939166132,0.00019600610995894804,0.01742280209594444
-0.015722873123691233,-0.008456946549204368,0.0030815115090134294
-0.01541762319990219,-0.00964254448261459,-0.0035826569793374124
-0.013916394066513467,-0.007170955242400538,-0.012624600784331835
-0.007105817898039958,-0.001113888380986217,-0.023207300343832973
0.0036629990854684853,0.008562120559426243,-0.024257573297597066
0.010183337621486842,0.01337144120866287,-0.017038945991015433
0.010128292553262587,0.004766294917782224,-0.014501230630651432
0.007100813800928662,-0.008762907306213458,-0.01973660139509985
0.005649625638652896,-0.009695131487725528,-0.019896541438820272
0.009222550976118057,0.0012764300331472957,-0.010699988924896112
0.01440679558342045,0.008619488201365447,-0.0022178352729231602
0.010838874343066584,0.004775856191438758,-4.798201311612606e-05
-0.004283507127269158,-0.00609053131921219,-0.005246033434029782
-0.016633618797947055,-0.013959459538539713,-0.01543421421902055
-0.014251668572970283,-0.013543544134480483,-0.02185847264179076
-0.004743884061508366,-0.010359640006854643,-0.020562958287655357
0.00012510242778239364,-0.00864817202233505,-0.016025992380786103
-8.006555378073192e-05,-0.007223542247511475,-0.010166855445828044
-0.0004303523515714341,-0.007816341214216586,-0.0017753344852966643
0.0019415896791827492,-0.01039788510148078,0.004952810020542346
0.007406063724717703,-0.007567748099146701,0.00831155093867117
0.016043135338814157,0.006449079081332217,0.018233164984127904
0.02897872637151366,0.02777071933540315,0.04120055526238024
0.04416616110429625,0.04585586845673731,0.06657770886602025
0.05724186685611203,0.05644975966817704,0.08191595905880855
0.06649444241489787,0.0661114266981047,0.08888401363022819
0.0696169990123464,0.07408552892765409,0.08919856238287835
0.06576884833375998,0.06968734304564843,0.07844526011007542
0.060399452133339644,0.055914328343411125,0.06335225131765844
0.0564512195125273,0.04590845546184824,0.05535524913163743
0.04483170602009858,0.04086488360802653,0.05396377075126978
0.02121737175189396,0.03810645615811646,0.05811688055321002
0.004573744759724311,0.03972709204289898,0.06732942707150623
0.007756350522508405,0.0369112969510497,0.06273914781673016
0.008441911826755922,0.011655192587315007,0.022988715617415063
-0.02144756021901356,-0.041328605380368436,-0.04223483421177229
-0.07625243178192456,-0.10507839748530921,-0.1001384613733551
-0.12635345206021756,-0.15221069597519382,-0.1315027039469295
-0.15219460954294878,-0.16835968718107983,-0.1441059793920986
-0.15164916295781755,-0.15583919932784848,-0.1460625792602784
-0.12977125038723256,-0.12102660194440801,-0.1297860141443303
-0.09634888578088828,-0.07625593804768732,-0.09706761253392303
-0.06407746351014201,-0.041228212006974824,-0.06830506133820079
-0.042109477191553696,-0.028554743775238943,-0.057093264273399336
-0.03331227446989578,-0.03508031304582343,-0.05837811595795338
-0.03332728676122966,-0.048222283686729484,-0.059785588342693076
-0.03420300375570642,-0.055756567328078314,-0.056250913376471784
-0.036344757319340996,-0.056057747448259136,-0.05481145298298801
-0.04640799661015674,-0.05805605364247476,-0.06106510869245643
-0.06322676700122173,-0.06644607127608339,-0.06873689945624592
-0.07852429187045283,-0.07623203486354599,-0.0724688338097224
-0.0851547205429197,-0.07959282255381771,-0.07345513074599833
-0.08152675013723028,-0.07369829734456446,-0.07017102851493902
-0.07223414180155407,-0.06424219769825229,-0.06318697993914735
-0.06577885652798257,-0.05859626560406893,-0.059263117533206365
-0.07048270781260058,-0.06087184873432403,-0.06119306072743277
-0.0827977908034994,-0.06849696447540994,-0.0647170730240727
-0.09065422326823372,-0.07328238194050524,-0.06546345989476798
-0.08787694937146458,-0.07225454502242783,-0.06281911783859037
-0.07006736775236302,-0.06366852127886025,-0.05450756689991921
-0.038136224085184876,-0.04443123868191373,-0.03714874082146293
-0.0053994207830881085,-0.020786208929305026,-0.016948313299573862
0.017104003926408855,-0.003532890616089332,-0.004243742493381816
0.026912034264548516,0.003719335452391746,0.0004425007876264959
0.020091449901852416,0.0020508931993265538,0.0025217213559919588
-0.0017564380860648065,-0.004312134419096857,0.006147029013654817
-0.021162326683669706,-0.005775009288546566,0.01448523662627939
-0.01774953245376601,0.004417308429318732,0.029215714652930092
0.014331734126751015,0.027330900747202583,0.05043975845462985
0.056776485824761525,0.059456780233156994,0.07448407836059968
0.08735652327188982,0.08867603252752505,0.09226407988751974
0.11424353705088186,0.10526006168478336,0.09728619726034093
0.1496024872392976,0.11797177501114538,0.09587872487560123
0.1700542321331633,0.13631507852120597,0.10012246736898305
0.15186934323071458,0.14492978608574314,0.11093974565927414
0.1084287762075562,0.1282788280128891,0.11965114670724636
0.0673951798949311,0.10147379731679589,0.11958183935496751
0.04594261557880624,0.08502840662755731,0.10869525371239758
0.040688313611945706,0.07116455982558294,0.08465626514121842
0.029744353229541907,0.04212219109386076,0.045060441650833054
0.0043685767781611855,0.003016581838636493,-0.0025856973734801267
-0.021582670841018548,-0.030227966665132402,-0.0438342346489765
-0.03561916323820311,-0.05096158858932649,-0.06914208090033766
-0.03702531452647722,-0.05674615915152959,-0.07628073818505908
-0.03777092499606029,-0.05444189220030488,-0.07188238698274751
-0.04919527870114847,-0.056913481440518936,-0.06718014969736717
-0.06071971434846257,-0.060020895378892505,-0.06673231757494999
-0.05449962163912196,-0.051908154681323364,-0.06628448545253281
-0.033347303149674844,-0.034506636626431386,-0.05913516549823003
-0.014021480105850678,-0.015914740001300928,-0.0460680639262717
-0.004623785730837268,-0.0017688356264587994,-0.03581590712379276
-0.004603769342392086,0.003231710495908509,-0.03176942401766613
-0.01569785263813475,-0.0029353110125559536,-0.031321591895248954
-0.032881922118324344,-0.015436676318474224,-0.03139623058231849
-0.04133384213930286,-0.024175680440546347,-0.027045861393123056
-0.03391276612325127,-0.022010051957341386,-0.017326838069712188
-0.016543545049943733,-0.00959473811433192,-0.006125703674492094
-0.0033227204819003746,0.0038531932835832224,0.0027189807432471433
-0.0037780933190282875,0.00858124310673931,0.006861427875606027
-0.014051504688518452,0.002423782871931382,0.006077721661375967
-0.029243943518412335,-0.015274134666313145,-0.003358740918128824
-0.04295016550625138,-0.03684914867228223,-0.020077806821703417
-0.04331546459537597,-0.04222258446725437,-0.028149447694793956
-0.03200120102673629,-0.028119705823866643,-0.020957477062165726
-0.018560196185795918,-0.010197098354693564,-0.008882003761274002
0.000510417905352166,0.006554253091554092,0.0020792205683654624
0.027807767647470456,0.023582881473841237,0.01044941618973412
0.053268613749743204,0.03746107018630041,0.016719065903574592
0.06392734059680315,0.0462478806766552,0.024113627258248685
0.0551551583607017,0.0467116024489971,0.029791498810323603
0.041238764294188233,0.03893828696623492,0.03365671653356709
0.04357067354805205,0.036509723457475274,0.044415350141160694
0.06383726684879983,0.049168849778726355,0.06305369656938033
0.0836184627297519,0.06604927841933722,0.07954351507695565
0.09009876848887989,0.07570616481243661,0.08914524903497154
0.08592535149805924,0.0812469228963981,0.09494574128723211
0.0715035436233049,0.08171064466873999,0.0934636302154229
0.04865984031023982,0.07081557333711945,0.07953818374216497
0.0401078383470354,0.05762101569110246,0.06442918094537593
0.06085982906757885,0.056268095468702886,0.06424258422770211
0.08530484345625856,0.06383584356784959,0.07535308593148064
0.08381362251709243,0.06779899149848295,0.08111625884020644
0.058272710861038954,0.0595571736065506,0.07188238698274751
0.02362934655953851,0.03803952724252072,0.050333131758816235
-0.0046988471875067045,0.0142080526536096,0.030329963624182353
-0.017384233364641417,-0.0008844178132293997,0.022109045376952755
-0.019095634576704563,-0.007228322884339743,0.020136451504400903
-0.016988909692849056,-0.0067120141068869035,0.01671373456878391
-0.017008926081294236,-0.0039296834728354945,0.010763964942384279
-0.023349117121305947,-0.007892831403468858,0.0014981050761812692
-0.02729734974211829,-0.0191082054025833,-0.011014537677546272
-0.014306713641194535,-0.025514258752461116,-0.021559917893512644
0.012480218195571588,-0.01690911246158047,-0.02160256857183809
0.034142954590370866,0.0040348574830573695,-0.00585913693495806
0.03613958933777787,0.022559825192592094,0.014042735838652894
0.009342649306789156,0.015369747402878487,0.006115041004910732
-0.04079840374839421,-0.024008358151557,-0.044068813379766446
-0.07787375924598439,-0.06059457179828455,-0.09720089590369003
-0.07211904756799428,-0.05685133316175146,-0.10795419817649296
-0.050646466863424236,-0.03188684764454106,-0.09304245476695912
-0.05640117854141434,-0.03043831468557615,-0.0912511262772904
-0.07107819536884476,-0.04667335735437097,-0.09216811586128748
-0.05125196261389102,-0.04642954487612935,-0.07017635984972971
-0.011509423355980214,-0.030046302465658255,-0.0357519311063046
0.009422714860569888,-0.012836009883896963,-0.007127994615140061
0.01606815582437064,0.007935857134923263,0.018158526297058372
0.03213631164874128,0.036089027416587774,0.04461260952841588
0.058347772317708387,0.06309006422263994,0.06662569087913638
0.08237744664615056,0.08157678683754852,0.0809349934573233
0.09998186028368898,0.09271089001058243,0.09040344404557218
0.11115100503610109,0.09661667029927658,0.09460986719541924
0.1144286886439998,0.0924670775323408,0.08989163590566683
0.10969981687382532,0.08534392865822293,0.07849857345798224
0.09251074329652444,0.07827336678921601,0.06818244063801514
0.06088985365024663,0.06933835655718494,0.062120712981011204
0.03367757355902037,0.05808473746344436,0.055509857840567174
0.02748250133523623,0.043675898063047544,0.04324778782200162
0.02238332637882587,0.021914439220776044,0.021757177280767828
-0.009978169639923715,-0.013357099298178068,-0.013024450893632885
-0.06297155804854565,-0.06136425432763554,-0.056938655564469594
-0.10798341156465088,-0.10731573552093819,-0.09754743266508428
-0.12885049651875413,-0.1338865150124463,-0.12431073331430126
-0.12610825130176406,-0.1333654255981652,-0.13247300687883337
-0.10602180549702295,-0.11193383069704413,-0.12436937799699875
-0.07917982859203257,-0.08605146290880646,-0.10590696561687157
-0.05544039189604556,-0.06375935337859731,-0.08105228282271829
-0.03533893379997055,-0.03983704668994912,-0.05359057731592213
-0.017459294821310853,-0.011593044308547537,-0.026486071240101584
-0.007230920325822352,0.010283149817602371,-0.00308684284380411
-0.007145850674930324,0.011674315134628075,0.007175976628256186
-0.007065785121149592,-0.003093072027888765,0.0014501230630651432
0.0014712045507209491,-0.016512319604834305,-0.009169895839970759
0.009177514102116396,-0.022717586207924904,-0.015295599514462853
0.006019928824888781,-0.02683849515389108,-0.01345628901167802
0.0019766183589618193,-0.02658034076516466,-0.00158340643283216
0.009442731249015072,-0.014561819778901358,0.016916325290829776
0.0203466588545285,0.001893132183993742,0.0315295139520855
0.018009745503553387,0.006482543539130086,0.03409921732119359
-0.0011109095587076554,0.0002677156623829534,0.030361951632926435
-0.025300714994711287,-0.0034659617004935933,0.0327983716322675
-0.03313212697388913,0.002232557398800701,0.042453418938190206
-0.009082436257001777,0.018037342753051487,0.04935216615733099
0.03023975884356019,0.03509465495630823,0.048488489921240725
0.05297337202017676,0.04373326570498675,0.04768878970263862
0.05383407672331963,0.04651081570220989,0.05448624156075648
0.0462228450170388,0.0443929935872876,0.05959899162501925
0.03966247370413008,0.03779093412745083,0.05375584869443323
0.042404718921120146,0.039990027068453664,0.05178858615667206
0.0558607360533944,0.055794812422704454,0.06665767888788046
0.06850608945363874,0.06735917291028239,0.08210788711127305
0.06959698262390122,0.06327650905894235,0.08324879275647872
0.05980896867420674,0.05535021319767562,0.0799700218602101
0.04831956170667171,0.05415983462743713,0.08249174321620206
0.037440654586714764,0.04759602026222651,0.07871715818440014
0.012094902718001815,0.014858219262253915,0.04669716143157202
-0.035108745332850945,-0.03935898300712242,-0.00981498734964312
-0.07687293982372524,-0.07893309467151685,-0.05619760002856498
-0.08341829884530007,-0.08228432108813204,-0.07567829735371216
-0.06675965956179654,-0.07167130732937925,-0.08629831625674807
-0.05234785988126479,-0.06714404425301038,-0.09287718338844801
-0.03999774821058689,-0.055966915348522064,-0.08519472995507717
-0.027832788133026934,-0.03684436803545396,-0.07953285240737429
-0.02842327159215983,-0.03228842113811549,-0.09234938124417062
-0.041829247753321135,-0.045927578009161314,-0.104414191875481
-0.05508510100114356,-0.06113478375987872,-0.09677972045522626
-0.06389231191702407,-0.06801412015575498,-0.07802941599640234
-0.06646441783223009,-0.06431868788750456,-0.06178483888919833
-0.05931856715729976,-0.0556131482232303,-0.05420368081685041
-0.04711857839996073,-0.053739138586549634,-0.05713591495172478
-0.03736559313004533,-0.057797899253748335,-0.062115381646220526
-0.03625968766844897,-0.05959063806434847,-0.05979625101227443
-0.05272316716461197,-0.06590107867766094,-0.05938040689860134
-0.08381862661420374,-0.08270023649219127,-0.0691847315786631
-0.10181335982642323,-0.09404946832249719,-0.07317257000209225
-0.08064602904564223,-0.0817680123106792,-0.05574443657135712
-0.03295698357499378,-0.04976642938225973,-0.02666733662298473
0.004463654623275804,-0.016928235008893535,-0.004099796454033438
0.017589401346204545,0.0029544335598690216,0.00609904700053869
0.01573788541502512,0.005918428393394577,0.004318381180451345
0.006810576168473509,-0.002433344145587916,-0.008327544943043212
-0.0003803113804584766,-0.009231409715383625,-0.024268235967178427
-0.005119191344855547,-0.01160260558220407,-0.034333796051983535
-0.02326404747041392,-0.019423727433248925,-0.0390893466852707
-0.05494498628202728,-0.033626999450030254,-0.043588993248605185
-0.07120329779662715,-0.040668877498067586,-0.04474589289818289
-0.0509216922045455,-0.030175379660021463,-0.03615711255039633
-0.009953149154367237,-0.006162240871636196,-0.019891210104029593
0.020356667048751092,0.017817433458951204,-0.0049101593422169005
0.029809406491988752,0.030452656596060952,0.004121121793196161
0.028558382214164818,0.03093550091571592,0.010971886999220826
0.0255208952676083,0.02656599885467986,0.01962464336449556
0.019791204075174672,0.02185707157883684,0.025542424982151108
0.011519431550202805,0.016292410310734022,0.02334058371359999
0.008076612737631333,0.011961153344324097,0.01985389076049483
0.011024025936184527,0.013008112809714575,0.024966640824757594
0.014091537465408819,0.019925694300216963,0.03526677964035266
0.009452739443237662,0.027067965721647897,0.03952118480331583
-0.003607954017244232,0.027694229146150877,0.03542671968407308
-0.012510242778239363,0.022311232077522208,0.03047924099832141
-0.007771362813842292,0.017994317021597084,0.03220126213571127
0.008066604543408741,0.02063322855080048,0.04214420152033072
0.02308389997440727,0.025781974414844068,0.051388736047371014
0.024259862795561773,0.02440993164513143,0.050860933903093625
0.015432635491236078,0.021001337586577042,0.04701171018422218
0.007721321842729335,0.0257915356885006,0.04669183009678134
0.0029674295869983767,0.03339274824544517,0.03959049215559468
0.0028973722274402364,0.030447875959232686,0.01969395071677441
0.010283419563712756,0.016770473993560724,0.0003412054266035631
0.02039169572853016,0.006253072971373269,-0.004723562624543077
0.026691853991651505,0.007605993193772837,0.002761631421572589
0.0255208952676083,0.009872015050371408,0.006477571770677018
0.0158780001341414,-0.0015632682428433173,-0.005656546212912195
0.004934039751737605,-0.01808036848450589,-0.024604110058991307
0.004278503030157862,-0.018936102476765686,-0.03195068940054928
0.014927221682995208,-0.0021656284832049623,-0.02152259854997788
0.025035497847812612,0.017640549896305324,-0.0040198264321732275
0.026226472960301,0.029372232672872603,0.007943688838114204
0.022953793449513583,0.03141834523537089,0.011254447743126901
0.02483533396336078,0.031542641792905834,0.013344330981073725
0.03661497856335097,0.039851388600433926,0.025499774303825662
0.055705609042944235,0.055479290392038826,0.04555625578636636
0.08230238518948112,0.06991203297657698,0.05904453280678846
0.12130431807492016,0.08175845103702267,0.06313366659124053
0.1592403782756532,0.09542629172903809,0.07124795814265653
0.16485497523452702,0.10953395100925409,0.09231206190063586
0.12787469758205147,0.11461576795770194,0.1123845373875486
0.0713784411955225,0.1013829652170588,0.10779425813277253
0.030089635930221317,0.07896177849248645,0.08413379433173171
0.023899567803548478,0.07057176085887783,0.07115732545121495
0.04012785473548058,0.07537630087128619,0.0739829328902757
0.049225303283816246,0.06705799279010156,0.06775593385476068
0.0388117771952098,0.037853082406218305,0.039233292724619076
0.018965528051810874,0.008227475981447551,0.006792120523327178
0.002236831408749198,-0.0031217558488583676,-0.00696272323662896
-0.006415252496681145,0.0003011801201808226,-0.005736516234772404
-0.01296061151825598,-0.001544145695530249,-0.007394561354674094
-0.026631804826315955,-0.018539309620019526,-0.013509602359584826
-0.04354064896538428,-0.036629239378181945,-0.012475323410192776
-0.05847287474549078,-0.04275801579202027,-0.005645883543330833
-0.0718588345182069,-0.04479934771769029,-0.007687784768161531
-0.07592216137257904,-0.05052655063795419,-0.021288019819187928
-0.069271716311667,-0.05441798901616355,-0.03245183487087326
-0.068205843626961,-0.05530240682939295,-0.0353094303186781
-0.07995546364428341,-0.06303269658070072,-0.04484185692441515
-0.08805209277035993,-0.07958326128016117,-0.0722182610745604
-0.07300477275669362,-0.08749043459411483,-0.09647050303736679
-0.03935722378034103,-0.07403772255937142,-0.09074998080696642
-0.01464198814765135,-0.05302204306230958,-0.06558608059495365
-0.015918032911031766,-0.04213653300434556,-0.04751285565454616
-0.03713040056581443,-0.03914863498667867,-0.04040085504377815
-0.07012241282058727,-0.03879486786138691,-0.03823100178397111
-0.10295929806490996,-0.04494754745936657,-0.0436956199444188
-0.11411843462309947,-0.055981257259006864,-0.05874064672371966
-0.10042222082948302,-0.06469157756010939,-0.07488925980469142
-0.08098130355209904,-0.06552340836822784,-0.07757625253919448
-0.06705490129136299,-0.056913481440518936,-0.06513824847253646
-0.05594580570428643,-0.04499535382764924,-0.05073298186811729
-0.04131882984796897,-0.03279994927874006,-0.03649298664220921
-0.02113730619811323,-0.016311532858047092,-0.016751053912318677
-0.0001551270104501681,0.002677156623829534,0.0020472325596213787
0.017944692241106543,0.018582335351473928,0.014319965247768289
0.029959529405327624,0.02969731597719476,0.024892002137688066
0.035549105878644974,0.03498948094608636,0.033779337233752746
0.04840963545467504,0.03454010108422926,0.03386463859040364
0.07209903117954909,0.03273780099997259,0.02613420314391666
0.07882453769713058,0.03294814902041634,0.021176061788583635
0.05440954789111863,0.032006363565247734,0.022898082925973492
0.02377946947287738,0.025619432762682987,0.022029075355092544
0.015667828055466976,0.020967873128779173,0.014591863322093003
0.038496519077198164,0.03008454756028439,0.0137655064295375
0.06837598292874505,0.04358984660013874,0.02641676388782274
0.06567377048864535,0.03979402095849472,0.04061943977019605
0.03150579541271801,0.020355951614760993,0.04866442396933319
0.00785643246473432,0.005167868411356654,0.05515265840959157
0.014481857040089887,0.005497732352507079,0.06162489884547791
0.03364754897635259,0.01838154860468671,0.06381074610965698
0.04866984850446242,0.03158088688753197,0.05769037376995557
0.06040445623045094,0.03715032879246306,0.04339173386135
0.07272954741557236,0.04072146450317852,0.027573663537400442
0.0733800800400408,0.04419220684050038,0.013504271024794146
0.03903195746810681,0.034798255472955675,-0.003358740918128824
-0.02368939572487406,0.008060153692458204,-0.019219461920403826
-0.0700923882379195,-0.018104271668647226,-0.021831815967837356
-0.07090305196994941,-0.02570070358876353,-0.01401074782990881
-0.04117371103174139,-0.01582868853839212,-0.009878963367131288
-0.012400152641790856,-0.0009513467288251381,-0.014197344547582633
-0.0011809669182657957,0.005985357308990315,-0.023809741175179887
-0.003983261300591413,0.0010517401022187456,-0.029780836140742242
-0.005014105305518337,-0.001874009636680674,-0.020083138156494096
0.010473575253941995,0.010230562812491434,0.005885793608911463
0.0391620639930005,0.028468692312330134,0.034403103404262385
0.06263628354208885,0.04023862018352355,0.05259894904485553
0.06878131479476002,0.045492540057789015,0.061816826897942406
0.06295654575721177,0.04622397749251387,0.06953126834005735
0.05747205532323163,0.04257157095571786,0.07464401840432011
0.055400359119155196,0.03721725770805879,0.07228756842683925
0.05460971177557047,0.035271538518954114,0.06409863818835373
0.054504625736233256,0.03857495856728663,0.055211303092289055
0.04905516398203219,0.04109913481261162,0.04233079823800455
0.03168093881161336,0.035429299534286925,0.014703821352697297
0.010183337621486842,0.02159891719011042,-0.023116667652391402
-0.002311892865418634,0.004847565743862764,-0.046670504757618615
-0.009287604238564904,-0.011899005065556627,-0.04003832427801186
-0.023809494055545156,-0.027503003673020197,-0.01574343163688003
-0.04464155032986934,-0.041080012265298546,-0.001354159036832891
-0.05308846625373656,-0.049508274993533316,-0.0045103092329158495
-0.04014787112392576,-0.04642954487612935,-0.006744138510211052
-0.03112047993514824,-0.03882355168235651,-0.00585913693495806
-0.051862462461469104,-0.04346076940577553,-0.020291060213330644
-0.08171690582745952,-0.05549363230252363,-0.0441914340799521
-0.07996046774139472,-0.05056957636940859,-0.05399575876001386
-0.03714040876003702,-0.018520187072706456,-0.04320513714367618
0.016273323805933763,0.017846117279920807,-0.023127330321972762
0.03866665837898222,0.025652897220480857,-0.013003125554470163
0.019821228657842447,0.004651559633903815,-0.02216235872485956
-0.013886369483845692,-0.020547177087891676,-0.03949985946415311
-0.0396324491214623,-0.04165368868469059,-0.05334000458076014
-0.05550544515849241,-0.05955239296972233,-0.060276071143435694
-0.06326179568100081,-0.06374501146811251,-0.0556111532015901
-0.06302159901965862,-0.05170258729770788,-0.03929193740731656
-0.05418436352111033,-0.03709296115052385,-0.019571330016588753
-0.036034503298440664,-0.029582580693316353,-0.004456995885009043
-0.01579293048324937,-0.02651819248639719,0.0029855474827811773
-0.0016163233669485256,-0.02156545273231255,0.00435570052398611
0.009547817288352281,-0.012539610400544408,-0.00028789207869675635
0.02197299041569962,-0.005894525209253243,-0.013973428486374045
0.030184713775335933,-0.008514314191143572,-0.030527223011437538
0.034818507700395795,-0.008332649991669425,-0.03339548112882374
0.040948526661733084,0.006917581490502386,-0.0204403375874697
0.03237650831008347,0.019328114696683583,-0.010683994920524069
-0.005569560084872164,0.007682483383025109,-0.015290268179672172
-0.05688657596121003,-0.024706331128483985,-0.030660506381204555
-0.09860072948097136,-0.060446372056608265,-0.05098888593806996
-0.11406839365198651,-0.0785793275462251,-0.06348020335263478
-0.09651402098556104,-0.07181472643422726,-0.05428365083871062
-0.06294653756298918,-0.05402119615941739,-0.02764297088967929
-0.0323414796303044,-0.037905669411329244,-0.003545337635802648
-0.004303523515714341,-0.02306179205956013,0.008082303542671901
0.017599409540427137,-0.006429956534019149,0.017364157413246952
0.020341654757417203,0.009116674431505217,0.03092707312073859
0.011949783901774239,0.01782221409577947,0.03971311285578034
0.016323364777046722,0.02018862932577165,0.03595452182835046
0.040142867026814466,0.025519039389289382,0.026550047257589755
0.07063283072593944,0.04483759281231643,0.029386317366231873
0.08675102752142304,0.07604559002724358,0.0484138512341712
0.0671549832335889,0.09323676006169179,0.058319471275255885
0.015898016522586583,0.07436280586369358,0.04421809075390551
-0.02409472759088901,0.03739414127070467,0.02786688695088788
-0.01726413503397032,0.01650753896800604,0.02975417946678884
0.017504331695312517,0.018410232425656314,0.0441914340799521
0.03835640435808189,0.025270446274219496,0.05120213932969719
0.03360251210235093,0.02317652734343854,0.03957982948601332
0.027662648831242878,0.01888351547165475,0.02634745653554389
0.042119485385776284,0.024333441455879158,0.029951438854044023
0.04891004516580461,0.02759383577275727,0.031684122661015245
0.008672100293875527,0.009068868063222548,0.007090675271605296
-0.04817444289044414,-0.018070807210849357,-0.02588896174354535
-0.06304661950521509,-0.024873653417473333,-0.03841759850164493
-0.042179534551111834,-0.01518808320340434,-0.040219589660895
-0.023999649745774395,-0.011511773482466996,-0.05045575245900189
-0.003637978599912007,-0.011048051710125096,-0.05616028068503021
0.02935403365486084,-0.0025050536980119214,-0.040987301870753015
0.040728346388836066,0.0038579739204114894,-0.018814280476312097
0.010403517894383854,-0.002806233818192744,-0.009601733958015893
-0.026952067041438883,-0.014810412893971244,-0.013914783803676558
-0.037911039715176564,-0.025370839647613105,-0.024817363450618534
-0.029899480239992077,-0.03985616923726219,-0.03964380550350149
-0.024940420002697992,-0.05746325467576965,-0.05429964484308266
-0.027817775841693048,-0.067459566283676,-0.06097980733580554
-0.02756757098612826,-0.06737351482076719,-0.05676805285116781
-0.015297524869231093,-0.06195227265751238,-0.04550827377325023
0.004673826701950226,-0.05316546216715759,-0.03236120217943169
0.02053681454475774,-0.042069604088749823,-0.018904913167753667
0.03129061923693229,-0.023535075105558564,-0.0017593404809246223
0.04425623485229957,0.00821313407096275,0.018307803671197432
0.05408928567599571,0.03948806020148563,0.031023037146970838
0.05495999857336117,0.05531674873987775,0.029732854127626118
0.054149334841331255,0.061880563105088375,0.02138398384542018
0.04814441830777636,0.06233472360377374,0.014042735838652894
0.02190793715325277,0.04417786493001558,0.003950519079894379
-0.02409472759088901,0.0040252962094008355,-0.014890418070371121
-0.06666958581379322,-0.03766185693308763,-0.03701545745169592
-0.07806891903332491,-0.05564183204419991,-0.05200717088308997
-0.054559670804457505,-0.04623831940299867,-0.05582440659321733
-0.02699209981832925,-0.028148389644836246,-0.05178325482188138
-0.028738529710171466,-0.022507238187481154,-0.046371950009340496
-0.05750207990589941,-0.03590258258028536,-0.046441257361619345
-0.08164184437079008,-0.05350966801879282,-0.05182057416541615
-0.07252938353112053,-0.04979033256640107,-0.04808330847714899
-0.03818126095918654,-0.021847510305180305,-0.02911975062669784
-0.01638341394238227,0.0012668687594907617,-0.012358034044797801
-0.017929679949772653,7.64901892522724e-05,-0.00934582988806322
-0.01782959800754674,-0.010130169439097827,-0.010774627611965642
-0.0036029499201329362,-0.0067024528332303695,-0.004798201311612606
0.011759628211545001,0.011028929162812028,0.011057188355871717
0.019891286017400586,0.03008454756028439,0.03294231767161588
0.0261113787267412,0.044283038940237454,0.05421967482122245
0.0314057134704921,0.05515420708771667,0.06579933398658087
0.03438815534882436,0.06479675157033127,0.06624183477420736
0.03943228523701047,0.07026101946504047,0.06678029958806611
0.046037693423920854,0.06496885449614888,0.07431880698208859
0.05207263454014353,0.05624419228456155,0.08586647813870293
0.06395236108235962,0.0631378705909226,0.10130069235772347
0.08200213936280337,0.08547300585258615,0.1185102410620407
0.09293108745387328,0.10275500798677144,0.12784007694573188
0.08824224846058917,0.10423222476670595,0.12410281125746472
0.06992725303324675,0.09421200997465827,0.10743705870179693
0.042634907388239746,0.07540498469225579,0.07856788081026109
0.015557737919018471,0.04615704857691813,0.04208022550284256
-0.003953236717923639,0.007754192935449115,0.0031614815308736396
-0.02041671621408664,-0.03217368585423708,-0.03287301031933703
-0.037500703752050314,-0.059074329286895634,-0.057055944929864565
-0.045967636064362716,-0.06256419417153056,-0.0657087012951393
-0.04264491558246234,-0.05306984943059225,-0.06570336996034862
-0.04293515321491749,-0.0529168690520877,-0.06741472842815711
-0.05600585486962198,-0.06927620827841746,-0.07581691205826986
-0.07004234726680654,-0.08511445809046612,-0.08283294864280562
-0.06629427853044603,-0.07971233847452439,-0.07423350562543769
-0.04213950177422147,-0.05616770209530928,-0.05082894589434954
-0.019761179492506897,-0.035075532408995164,-0.02922104598772077
-0.016703676157505197,-0.027455197304737528,-0.020147114173982267
-0.025866177968287708,-0.031303609951492485,-0.02256220883416061
-0.031440742150271164,-0.0382020688946818,-0.03000475220195083
-0.02532073138315647,-0.03662445874135368,-0.0339019579339384
-0.01670868025461649,-0.023616345931639107,-0.03299029968473201
-0.02125240043167303,-0.011860759970930489,-0.034125873995146994
-0.041038600409736406,-0.02156545273231255,-0.038033742396715926
-0.05996909978176821,-0.04937441716234184,-0.035645304410490984
-0.050000938336067086,-0.05579959305953272,-0.01869165977612644
-0.006275137777564864,-0.021254711338475195,0.008348870282205935
0.03401284806547718,0.021512865727201614,0.02945562471851072
0.044236218463854386,0.04025774273083662,0.03733533753913676
0.04536214031389593,0.042872751075898684,0.03943055211187426
0.06584390979042941,0.056306340563329026,0.04049148773521972
0.09523797622218062,0.08793981445597193,0.0405767890918706
0.09863575816075043,0.11110199988892566,0.04311450445223461
0.07187885090665208,0.10190883526816819,0.049362828826912356
0.05120692573988936,0.07680093064610977,0.056154949350239534
0.05641619083274823,0.0626167811766415,0.05865001403227809
0.06792561418872844,0.05943765768584393,0.0522470809486706
0.07039763816170855,0.05629677928967249,0.039862390229919394
0.06909657291277164,0.050325763891166976,0.031380236577946446
0.055515453352714995,0.0373033091709676,0.026811282662333107
0.004548724274167832,0.005507293626163613,0.008348870282205935
-0.06838098702585636,-0.0377526890328247,-0.02571302769545289
-0.09719958228980856,-0.0559764766221786,-0.041216549266752285
-0.06093489052424829,-0.03600297595367897,-0.021479947871652433
-0.017294159616638095,-0.011244057820084044,0.005000792033658471
-0.007100813800928662,-0.006014041129959918,0.013829482447025667
-0.01647849178749689,-0.011564360487577934,0.009788330675689717
-0.025270690412043512,-0.014561819778901358,0.010385440172245951
-0.023554285102869072,-0.007481696636237894,0.02754700686344704
-0.008972346120553271,0.007075342505835198,0.04983198628849225
0.01033846463193701,0.017731381996042395,0.05902320746762574
0.02605132956140565,0.019763152648055882,0.05523795976624246
0.035403987062417396,0.017152924939822088,0.04630797399185233
0.037665838956723076,0.01412678182752906,0.03212662344864174
0.03432810618348881,0.008576462469911044,0.00728793465886048
0.031901119084510376,-0.0038627545572397564,-0.02224232874671977
0.032881922118324344,-0.020948750581466107,-0.041349832636519306
0.015387598617234417,-0.03961235675902057,-0.048163278499009206
-0.03905197385655199,-0.05730071302360856,-0.05297214248020317
-0.09601361127443146,-0.06764601111997841,-0.06211005031142985
-0.1079583910790944,-0.06870253185902542,-0.07307127464106931
-0.07743339870019036,-0.060513300972204004,-0.07423883696022837
-0.038321375678302814,-0.04228951338285011,-0.05877263473246375
-0.012174968271782547,-0.023229114348549476,-0.03991037224303552
-0.0038531547756977236,-0.01772660135921413,-0.03493623688333045
-0.011689570851986861,-0.026666392228073467,-0.04295989574330487
-0.024810313477804304,-0.03466917827859247,-0.04912291876133173
-0.029569209830646558,-0.029740341708649164,-0.044367368128044565
-0.023559289199980366,-0.014571381052557893,-0.02953026340558025
-0.010753804692174556,0.004297792508612056,-0.005981757635143715
0.006320174651566526,0.02338209472705402,0.02366046380104083
0.021617699520797617,0.038369391183671143,0.050055902349700844
0.02949414837397712,0.04503837955910365,0.06044667385673748
0.036224658988669896,0.04678331200142111,0.056058985324007285
0.049705696606500635,0.053672209670953895,0.05586705727154278
0.06397237747080481,0.0661544524295591,0.06753201779355208
0.06805572071362213,0.0724170866745889,0.07478263310887781
0.06254120569697422,0.06650821955485085,0.06590062934760381
0.061235136350926034,0.05810386001075742,0.053302685237225374
0.07031757260792781,0.058940471455704156,0.05206581556578746
0.07365530538116208,0.06252594907690442,0.05494473635275502
0.055735633625612006,0.05357181629756028,0.04684643880571108
0.0214075274421232,0.03120799721492714,0.028112128351259192
-0.014717049604320786,0.004010954298916034,0.0041904291454750095
-0.04053318660149553,-0.02352551383190203,-0.02334591504839067
-0.05238288856104386,-0.04636739659736188,-0.04665984208803725
-0.052523003280160144,-0.05597169598535033,-0.05596835263256571
-0.04285008356402546,-0.052171089706878046,-0.049826654953701574
-0.029053787828183096,-0.043068757185857634,-0.03535208099700354
-0.019385872209159716,-0.0341719920484527,-0.022684829534346265
-0.018470122437792596,-0.030830326905494046,-0.017524097456967373
-0.027752722579246204,-0.03651450409430354,-0.02208772003779003
-0.03949233440234602,-0.04429260021389399,-0.03428048270407673
-0.03900193288543904,-0.040793174055602524,-0.04039019237419678
-0.023549281005757778,-0.020920066760496504,-0.0273923981545173
