channel1,channel2,channel3
-0.0016984722282229242,-0.004815796686237798,-0.008179278419806566
0.009711655450202026,0.005805870655663933,0.0024801682950381203
0.016424890653932298,0.015278859945658644,0.011503759325921493
0.01732157012637401,0.018436523042323547,0.016598418376850863
0.017221939073880487,0.01647559984074169,0.018723591596777143
0.01720296173054839,0.012539334884625166,0.01983175189881545
0.01598366742146098,0.00985748403540292,0.021155787584367716
0.012691098353341682,0.008612682297143848,0.019457567900724594
0.009844496853526724,0.0071516022645926585,0.014842631924270685
0.00990617321935605,0.006204783954024948,0.013547379623186947
0.008924095701919888,0.006497961197398706,0.01565336392013421
0.0026378507231618596,0.003172081649617712,0.012429624859659127
-0.00858724785777512,-0.010208335490587908,-0.002216320604076618
-0.019907233155372597,-0.027308739292617935,-0.020565728202762902
-0.027602545876539028,-0.03840621888196232,-0.03180084260697814
-0.03424461604277393,-0.0461393694489849,-0.0368331376582257
-0.0392261686674501,-0.05275267907000607,-0.03978343456624977
-0.034624162909415925,-0.05012369624827745,-0.03666043735141453
-0.017981032807164475,-0.03373941390957021,-0.02174584696597253
-0.0009441228307719606,-0.015668160875384453,-0.0043654799777266716
0.008032160565311202,-0.006651759095561989,0.00201963414354168
0.013801272938269514,-0.0008026327810396331,0.0016454501454508225
0.01781023671717558,0.0074063300334255965,0.005142631358376914
0.016424890653932298,0.01325065016363035,0.012731850396578667
0.011049558155115057,0.013798555175837045,0.018694808212308615
0.008753299611930991,0.013933128336729918,0.022067261425871086
0.013791784266603465,0.017158078013841258,0.02468654941250709
0.021743291122753243,0.023285963018784564,0.026629427864132697
0.026444927933280946,0.03009632619682744,0.02620247432784954
0.027474448809047355,0.03365770877617096,0.023060288190035288
0.029609399933908574,0.03560421342480001,0.02232151465534308
0.03372273910114119,0.03789195715997885,0.024806480181125957
0.0346004412302508,0.03727676556732572,0.025415728485709787
0.028214565198999245,0.03245135651245271,0.02399574818526243
0.01374908524410624,0.02232953233958165,0.020292286050311893
-0.0033969444564458484,0.007170827001863069,0.012108210399760571
-0.014308916872403182,-0.0075985774061297,0.003151780599303762
-0.01689457990140177,-0.016571723527093744,0.0002446587679824838
-0.016946767595565043,-0.019450627933337697,0.0017605836833249325
-0.01836057967380647,-0.02012349373780206,-0.0017941642985382146
-0.015457046143995214,-0.01916225687428154,-0.00916750795322601
-0.003861889368082291,-0.013961965442635534,-0.008313600880659695
0.008805487306094265,-0.0058731572361103695,0.00017749753755591963
0.012667376674176558,0.0017206139857017285,0.0037322455194190667
0.00857775918610907,0.00756012793158888,0.0007195846117131877
0.005304167461321869,0.011352207358177326,-0.0003166172291538026
0.0030600966123010783,0.011496392887705403,0.002168348296629072
-0.0057026916712959634,0.003945877324751729,0.0009066766107586165
-0.017506599223861982,-0.010429419969197627,-0.0064138975057368795
-0.018730637868782415,-0.017576216049472685,-0.005895796585303384
-0.005802322723789486,-0.007564934115906482,0.011086400251127844
0.011078024170113205,0.008232993736053242,0.02906162385172327
0.0244760285625756,0.017504123284708645,0.03542754905001261
0.03303006606951955,0.02127217178970908,0.034453711208827426
0.037371133356737356,0.02494409660835746,0.03363338475147439
0.0443832617179482,0.035051502228275716,0.037979675806222045
0.0556700366647145,0.049436411890860274,0.043256629625452084
0.059954171921936014,0.05722723666969408,0.04141929025021108
0.05214499514077698,0.054482905424342996,0.03250123829571231
0.039354265734941773,0.04517813258546438,0.018944264211035854
0.02874118647646501,0.03730560267323133,0.006792878734572491
0.02217977001939154,0.03643568331174526,0.00628916950637326
0.015803382659806034,0.03630111015085239,0.015077696230763658
0.006812866256223796,0.028231526681597632,0.018152721138151348
0.0018597796465457716,0.018085671587138558,0.011215925481236217
0.007576704325340809,0.015999787593299033,0.0064618698131844255
0.02001635287953217,0.021079924417004976,0.01171963470943545
0.02909701166394188,0.02607835610731167,0.01933763713210573
0.024120203375098733,0.01901326516043586,0.017888873447189844
0.0009298898232728858,-0.006195171585389743,0.00201963414354168
-0.028005814422346148,-0.03578204224455131,-0.0237031171098324
-0.042618368788062924,-0.051233924825643644,-0.044729379464091744
-0.039819210646578215,-0.050046797299195804,-0.052150695426227085
-0.029400649157255477,-0.04075163682895239,-0.047526164988283666
-0.01869742751795124,-0.030423146730424417,-0.03740880534759625
-0.017364269148871236,-0.025174793455602383,-0.03187280106814946
-0.026150779111633403,-0.025492001620564156,-0.030918152149943295
-0.03196259050708894,-0.02603990663277085,-0.028692237084377167
-0.032318415694565804,-0.028543928662241803,-0.02832764754777582
-0.03270745123287385,-0.03356158508981891,-0.029987489385460905
-0.025671601192497884,-0.030062682906604223,-0.025473295254646842
-0.008610969536940244,-0.01493762085910886,-0.013000495318284924
3.321035083117449e-05,-0.0008891440987564798,-0.001247279993636192
-0.006817610592056821,0.0033258795477809945,0.0014679526078949028
-0.0130374348691525,-0.0003796885610906049,-0.002465776602803856
-0.011879816925894418,-0.007574546484541687,-0.004840405821457376
-0.012202431762540114,-0.014106150972163611,-0.004658111053156702
-0.01721719473804746,-0.01840287975210033,-0.004346291054747653
-0.02068055989615566,-0.020008145314179597,-0.0008587043033110706
-0.017525576567194084,-0.01601420614625184,0.00870697380172957
-0.008862419336090565,-0.007593771221812097,0.019678240514983306
0.00044122323247131826,-0.0018071253034185751,0.024576213105377734
0.004995785632175249,-0.0021387520213331543,0.024221218030265897
0.004326834279718734,-0.0036719248186483813,0.02693645063179699
0.004862944228850551,0.0003027896120089634,0.035106134590114045
0.010892995072625235,0.00974694179609806,0.041726313017875376
0.0180427091729938,0.017196527488382077,0.04106429517509924
0.020011608543699145,0.015480719686997954,0.03325440352263878
0.01765841797051878,0.00850694624215659,0.022249556194171762
0.016756994162244045,0.00633935711491782,0.013082048240945752
0.01747338887303081,0.00937686560364266,0.0063659251982893334
0.013867693639931863,0.010333296282845576,4.7972307447545845e-06
0.001764892929885273,0.0027731683512566964,-0.008553462417897425
-0.01683764787140547,-0.013697625305167391,-0.02048897251084683
-0.027000015225744863,-0.024208750407764264,-0.02388061464738832
-0.014000535043256561,-0.016667847213445795,-0.008807715647369417
0.009094891791908786,-0.004988819321671492,0.009249060875886839
0.02396364029260891,0.0015187542443624196,0.018277449137514966
0.03618979373431415,0.01777326960649439,0.02976201954045744
0.042964705303873744,0.038612884807619235,0.04336696593258144
0.028802862842294337,0.03528219907552064,0.0420189440933054
0.008919351366086865,0.01432723545077333,0.02998269215471615
0.00879125429859519,0.008583845191238232,0.025645995561458006
0.023256734253488197,0.023386892889454218,0.03069268230493983
0.03756090679005835,0.04290480740323835,0.03825791518941781
0.04615764331949952,0.054824144510892785,0.044115333928763156
0.04529891853372201,0.05422817765551006,0.04406736162131561
0.03425410471443998,0.04130434802547669,0.03520207920500914
0.012268852464202463,0.013063208975243849,0.012223343937634681
-0.02298156277517275,-0.03141802688416815,-0.029210338004810665
-0.0657185399590613,-0.08042668837076179,-0.0822964934262649
-0.10428999028155396,-0.11727089734950327,-0.12910787103358012
-0.12692047220508287,-0.13014666513636064,-0.1482919967818537
-0.12239437582037709,-0.11530036177928621,-0.1321924904024573
-0.09420353230054296,-0.08185412511308977,-0.0951098967455044
-0.0655667212124045,-0.051536714437652606,-0.05678482032566001
-0.04982501491842779,-0.03656545028832053,-0.024720130027720374
-0.03678283571344226,-0.02655416835475433,0.0008874876877795981
-0.016823414863906393,-0.012721969888694064,0.01573971407353979
0.008326309386958749,0.0022829375508612317,0.02171226635075925
0.03196259050708894,0.017758851053541583,0.02992992261652385
0.04354825861133581,0.030807641475832623,0.03785015057611367
0.03726201363257778,0.035325454734379064,0.03481350351468402
0.020941498366972032,0.02954361500030314,0.02174584696597253
0.003871378039748341,0.016321801942578408,0.00040296738255938506
-0.009360574598558182,0.006464317907175488,-0.022949951882905932
-0.014399059253230656,0.00554153051819579,-0.0335902096747716
-0.016738016818911943,0.004570681286040067,-0.031848814914425684
-0.02315710320099467,0.0006824781730995682,-0.028596292469482077
-0.028053257780676397,-0.00014899171384568039,-0.025929032175398527
-0.026501859963277245,0.003051927041677647,-0.024432296183035097
-0.01997839819286797,0.004940757478495466,-0.027382593091059167
-0.010575124571812564,0.0009516244948853135,-0.029694858310030877
-0.0007780710766160881,-0.005161841957105185,-0.025003166641660895
0.0047016368105277035,-0.00904523888572808,-0.018872305749864534
0.0025904073648316105,-0.012659489492565231,-0.01691023837525991
-0.003387455784779798,-0.015350952710422684,-0.01563417499715519
-0.0037812356589208675,-0.01136181972681253,-0.009210683029928802
0.004658937788030479,-0.0024030921588012967,-0.00013432246085312837
0.010015292943515622,0.0009468183105677109,0.00010553907638460085
0.006959940667047569,-0.0003124019806441686,-0.006265183352649487
0.008909862694420814,0.004195798909267064,-0.004926755974862958
0.01941856656457103,0.013063208975243849,0.0022355095270556362
0.025173445930030267,0.01823946948530184,0.005037092281992313
0.017478133208863832,0.015610486663573224,0.0030558359844086703
0.003411177463944923,0.009737329427462854,0.0023698319879087645
0.0025334753348353113,0.015240410471117823,0.01142700363400542
0.019039019697929035,0.0316871732059539,0.026279230019765613
0.03185347078292936,0.04042001011103781,0.03221820168177179
0.03440117912526375,0.04240977041852528,0.0329665696779535
0.040511883678199856,0.05007563440510142,0.04163036840298028
0.044454426755443574,0.05384848909441946,0.05057240651120283
0.03219980729874018,0.04537999232680369,0.04922438467192679
0.01739747949970241,0.03795443755610768,0.04508437453920358
0.015755939301475785,0.03880032599600573,0.045103563462182604
0.014906703187364322,0.037430563465488995,0.04391864746822822
0.0013141810257479049,0.02351665986602949,0.02987715307833155
-0.015964690078128882,-0.00040371948267861786,0.001232888301401928
-0.02431946548008578,-0.02244007457888651,-0.026763750324985826
-0.02867002143896964,-0.03784870150112042,-0.04388026962227018
-0.03851926262832939,-0.050041991114878205,-0.052294612348569726
-0.04636639409615262,-0.05483856306384559,-0.05108571020089157
-0.04123776706065267,-0.04767734843061772,-0.03921256410762397
-0.029234597403099603,-0.036387621468569234,-0.02486404695006301
-0.021273601875283776,-0.0298367922436769,-0.015370327306193688
-0.018597796465457717,-0.027044399155149793,-0.008428734418533805
-0.019480242930400352,-0.025458358330340936,-0.0016262612224718042
-0.0211834594944563,-0.027164553763089856,0.0031086055226009707
-0.016529266042258847,-0.02990888500844094,0.007234223963089913
-0.004711125482193753,-0.029293693415787806,0.012765431011791948
0.006333688337088279,-0.02657819927634234,0.017529081141333253
0.01052293687764929,-0.025270917141954435,0.020057221743818916
0.00788508615448743,-0.026962694021750548,0.021174976507346736
0.004986296960509199,-0.024252006066622686,0.021606727274374647
0.005788089716290412,-0.013365998587252813,0.018004006985063953
0.004635216108865354,-0.00693051778598294,0.006955984579894148
-0.004502374705540656,-0.010698566290983372,-0.0060636996613697945
-0.014598321358217703,-0.01082352708324104,-0.012611919627959801
-0.010266742742665943,0.007536097010000867,-0.011652473479008885
0.0005550872924639166,0.03378747575274623,-0.011225519942725727
-0.007159202772034616,0.04056419564056589,-0.017951237446871656
-0.02707118026324024,0.02368487631714558,-0.026792533709454353
-0.031246195796302174,0.0016821645111609078,-0.030323295537593727
-0.012567745621683033,-0.010491900365326462,-0.024566618643888226
0.01697523361056319,-0.00867516269327268,-0.008846093493327453
0.04329206447635246,0.0015668160875384454,0.010198912563348246
0.05976439848861501,0.013481347010875274,0.027142731553821436
0.07197157458698815,0.02785664430482463,0.04538180284537837
0.08541227800194777,0.04759564329721848,0.06815425719072837
0.09653300119455821,0.06843525849834332,0.09049975799979523
0.10278129148665203,0.08332962369859376,0.10504975884863589
0.10526257912732408,0.09633996464634398,0.11083521912680992
0.10464581546903083,0.11501679690454766,0.1091993634428486
0.09856357693109287,0.1306561206740265,0.0955944170507246
0.08038802635477438,0.12792140179731062,0.07083590917704619
0.04723460755359618,0.1015690931838956,0.04726711452806692
0.005560361596305215,0.05587189269213015,0.025348567255283224
-0.03321983950284054,0.00374401758341242,-0.00820326457353034
-0.061263608611850894,-0.04152062631976881,-0.05025099205130427
-0.07822935355074803,-0.0735826819024957,-0.08139461404625103
-0.08970590193083533,-0.09235563784705143,-0.09467814597847647
-0.09983031459851052,-0.10324645151073891,-0.09801701857682567
-0.10133901339341246,-0.10409714613495458,-0.09431835367261988
-0.08480974735115361,-0.08722263299585187,-0.08071340728049588
-0.05539960952223208,-0.05924102789876957,-0.06123185322604752
-0.027977348407347998,-0.03380189430569904,-0.044240061928126774
-0.011229842916770004,-0.013865841756283482,-0.030769437996855904
-0.0012857150107497555,0.004147737066091038,-0.014861820847249702
0.01053242554931534,0.02185372009213899,0.006903215041701847
0.02720876600239796,0.037464206755712215,0.027924680165216435
0.043946782821309906,0.04574045615062388,0.03769184196153677
0.051314736369997616,0.04490418007936103,0.037183335502592785
0.041318420769814096,0.0359502586956674,0.0312347693790971
0.017516087895528033,0.016855288401832296,0.01771617314037868
-0.009161312493571135,-0.011366625911130133,-0.004245549209107807
-0.03458620822275172,-0.040967915123244505,-0.03116281091792578
-0.05299423125488844,-0.0583759147216011,-0.050831456971419574
-0.05752507197542725,-0.05975528962075304,-0.053772159417954137
-0.0574206965871007,-0.0606011780606511,-0.05345074495805558
-0.06099318146936847,-0.06517185934669116,-0.059998964924645584
-0.06030050843774683,-0.060178233840702075,-0.06106874738072586
-0.05121036098167107,-0.04748510105791362,-0.051963603427181655
-0.03818715912001764,-0.03708932437893921,-0.04050301917796296
-0.019385356213739855,-0.02264674050454342,-0.02591943771390902
0.0044312096680452825,-0.0010429419969197628,-0.007757122114268163
0.02039115541034114,0.012818093575046116,0.006082888584348813
0.022293634079384134,0.011659803154503892,0.010976063943998488
0.01935214586290868,0.007512066088412854,0.010597082715162878
0.01864998415962099,0.007862917543597843,0.011297478403897046
0.01383448328910069,0.002672238480587042,0.012511177782319955
-0.002571430021499511,-0.015596068110620415,0.009253858106631593
-0.023688468814293463,-0.03770451597159234,0.00277279937046815
-0.035715360151011656,-0.05012369624827745,-0.0008587043033110706
-0.034462855491093076,-0.04955656649880034,-0.00025905046021674756
-0.022284145407718087,-0.040915047095750876,0.001256874455125701
-0.0011338962640929577,-0.02844299879157215,0.004610138745709156
0.023773866859287913,-0.01123205275023726,0.015787686380987338
0.04354825861133581,0.009650818109746008,0.034607222592659574
0.05230630255909983,0.025929364393465992,0.04916681790298973
0.051371668399993915,0.034441116819940186,0.04914283174926596
0.04252822640723545,0.0367000234492134,0.035322009973628006
0.03208594323874758,0.03402778496862636,0.01743313652643816
0.03306327642035072,0.031639111362777875,0.006082888584348813
0.04375226505215588,0.031168105299652818,0.00415440182495747
0.055200347417245034,0.037517074783205845,0.013849605160106485
0.06946656526715099,0.06243714046997529,0.035897677662998555
0.07841438264823601,0.09765205296504949,0.05636266402012161
0.0609409937752052,0.11425741978236645,0.054674038797968
0.017511343559695008,0.0930333098358334,0.027948666318940208
-0.025325264676687064,0.04028063076582734,-0.003473195059202319
-0.04849660088518081,-0.015797927851959725,-0.02184179158086762
-0.052244626193270506,-0.045264643903181224,-0.024916816488255313
-0.03893676418163558,-0.04128992947252388,-0.01325954577850167
-0.010726943318469361,-0.019316054772444823,0.008491098418215614
0.020713770246986833,0.003556576395025919,0.02585707371422721
0.037584628469223474,0.014971264149332078,0.025314986640069943
0.02884556186479156,0.006512379750351514,0.00594376889275093
-4.744335833024928e-06,-0.016648622476175382,-0.021074234661706888
-0.028318940587325793,-0.03459491471810347,-0.03999930994976372
-0.04067793543235573,-0.037550718073429065,-0.04388506685301494
-0.04304535901303517,-0.03627227304494677,-0.04376993331514083
-0.04358146896216698,-0.03432576839631772,-0.048404058214573754
-0.03771272553671515,-0.024069371062553788,-0.04925796528714007
-0.023769122523454887,-0.008593457559873436,-0.0394524256448617
-0.011239331588436053,0.0016677459582080999,-0.026864492170625674
-0.010276231414331993,0.0022781313665436293,-0.02280123772981854
-0.018536120099628392,-0.0016389088523024843,-0.024763305104423164
-0.023655258463462288,-0.001643715036620087,-0.021079031892451642
-0.02246917450520606,0.0014466614795983807,-0.012314491321785017
-0.02387824224761446,-0.00017302263543369337,-0.008927646415988281
-0.0294813028664169,-0.005853932498839959,-0.009819931334512633
-0.028157633169002945,-0.005728971706582291,-0.003127794445579989
-0.014584088350718628,0.0037151804775068047,0.014502028541393108
0.004084873152234463,0.014798241513898386,0.034161080133397394
0.02162468272692762,0.02222379628459439,0.047118400374979524
0.0357438261660098,0.028289200893408865,0.051920428350478866
0.045872983169518024,0.033994141678403145,0.05122962712323421
0.05193150002829086,0.03443150445130498,0.04595267330400416
0.049070665520976824,0.02363200828965195,0.03477512566872598
0.03555405273268881,0.006699820938738015,0.021971316810975996
0.017905123433836077,-0.00114867805190702,0.017030169143878775
-0.0013900903990763038,0.0022492942606380135,0.017447528218672424
-0.02424355610675738,-0.0003027896120089634,0.006001335661687985
-0.04209174751059716,-0.015283666129976246,-0.021103018046175415
-0.037133916565086106,-0.02458843896885487,-0.0419661745551131
-0.009583558382710354,-0.017528154206296657,-0.0384593988806975
0.012904593465827804,-0.008386791634216526,-0.02064728112542373
0.010779131012632635,-0.010943681691181106,-0.010597082715162878
-0.005484452222976817,-0.02129620271129709,-0.01471310669416231
-0.016092787145620555,-0.028904392486061997,-0.022532592808112283
-0.014251984842406883,-0.029591676843479166,-0.024600199259101507
-0.007078549062873192,-0.024823942000417393,-0.01952952636189591
-0.00014233007499074782,-0.017023504852948387,-0.00871656826321908
0.00785662013948928,-0.01041500141624482,0.003046241522919161
0.014584088350718628,-0.006916099233030132,0.012237735629868945
0.019385356213739855,-0.0009131750203444927,0.027056381400415854
0.02672484374742942,0.0113041455150013,0.04997754989885326
0.0330395547411856,0.02285340643020033,0.0647194399774841
0.034780725991905743,0.028495866819065775,0.06376479105927793
0.03613286170431785,0.03184097110411718,0.055719835100324494
0.039487107138266475,0.035070726965546126,0.04536261392239935
0.04649449116364429,0.04155426960999202,0.034799111822449755
0.05123408266083619,0.055386468076052284,0.023751089417279946
0.03979074463158007,0.06434519564406352,0.006332344583076051
0.01679969318474127,0.05433871989481492,-0.013580960238400228
0.0008350031066123873,0.03300887389329461,-0.0267349669405173
-0.008573014850276044,0.009458570737041904,-0.03941884502964842
-0.026264643171626,-0.01818179527349061,-0.05631948894341882
-0.05298948691905542,-0.04217907357128036,-0.06161083445488313
-0.06933846819965932,-0.04666804972392118,-0.04348689670120031
-0.05881553132201003,-0.030610587918810918,-0.01619065376354672
-0.030036390158880818,-0.010390970494656806,-0.001976459066838889
-0.0037243036289245682,-0.0011727089734950328,-0.002955094138768824
0.010243021063500819,-0.0026674322962694395,-0.005152225819866424
0.015860314689802334,-0.003989132983610153,0.0007579624576712243
0.02272062430435638,-0.00013457316089287262,0.013345895931907253
0.03178705008126702,0.0018647995152298062,0.022316717424598325
0.033713250429475136,-0.004767734843061772,0.019731010053175606
0.026127057432468275,-0.015778703114689315,0.01090410548282717
0.014541389328221403,-0.02484797292200541,0.0012952523010837378
0.0014138120782414285,-0.02887555538015638,-0.00870697380172957
-0.005508173902141941,-0.019873572153286723,-0.010544313176970577
-0.0005123882699666921,0.00257611479423499,-0.0005276953819230043
-0.0004080128816401438,0.019988920576909187,0.005094659050929369
-0.017421201178867536,0.01830675606574828,-0.0030654304458981796
-0.031587787976279966,0.007694701092481752,-0.008913254723754017
-0.022322100094382284,0.006103854083355294,-0.0007483679961817151
0.0045118633772067065,0.017379162492450976,0.013201979009564616
0.034576719551085676,0.03785350768543803,0.0289320986216149
0.05775280009541244,0.06323016088237972,0.046739419146143914
0.06753087624727681,0.08490605215476742,0.05893877693005482
0.06652982138650856,0.09592663279503016,0.06296365352490392
0.060362184803576156,0.09127905255990845,0.060795305228274844
0.05229681388743378,0.0683727781022145,0.049804849592042094
0.047414892315251124,0.04238093331261967,0.03478951736096025
0.04654667885780756,0.035830104087727334,0.029670872156307104
0.04859148760184131,0.04848959358029256,0.040104849026148325
0.05659992648798739,0.06373000405141038,0.05607003294469158
0.059100191471991526,0.06555154790778177,0.0604307156916735
0.02974224133723327,0.03705568108871599,0.040824433637861514
-0.03864261535998804,-0.02860160287405303,-0.006428289197971143
-0.12060576121132668,-0.11029712390466191,-0.07321533562644447
-0.17885197223337373,-0.17020621142357825,-0.13475900885090103
-0.1910069606375836,-0.18430755621142425,-0.16084634964087646
-0.16446240165180911,-0.1595653193444061,-0.14542325279649046
-0.12627524253179148,-0.12492714896744421,-0.11362720742025709
-0.09154670423404901,-0.09704166755671396,-0.0839323491102262
-0.05782396513290782,-0.06716642583849625,-0.05087942927886712
-0.02742226111488408,-0.03232639572019504,-0.01327873470148069
-0.007273066832027214,-0.007483228982507238,0.016133086994609667
0.0031122843064643525,0.0002547277688329375,0.027838330011810852
0.00943648397188658,0.0013265068716583157,0.024720130027720374
0.015063266269854145,0.0040996752229150125,0.018027993138787727
0.017240916417212586,0.006055792240179268,0.01425257254266587
0.01112072319261043,0.004931145109860261,0.011825173785820051
0.0006309966657923154,0.0015043356914096117,0.009704797796638524
-0.0029082778656442806,-0.002648207558999029,0.008112117189380002
0.001447022429072603,-0.00441207720355918,0.007512463346285679
0.0023911452598445637,-0.00794942886131469,0.004351088285492408
-0.0064190863820827275,-0.020815584279536833,-0.005425667972317435
-0.01829415897214412,-0.03189864531592841,-0.012607122397215047
-0.021330533905280075,-0.02449712146682042,-0.008395153803320522
-0.014157098125746384,-0.010049731408107023,-0.0008107319958635248
-0.011035325147615982,-0.010573605498725705,-0.0016358556839613132
-0.022416986811042785,-0.023492628944441478,-0.015418299613641233
-0.037878777290871024,-0.03227352769270141,-0.03314406721550942
-0.03838642122500469,-0.02850547918770098,-0.03560504658756852
-0.024551937935904,-0.01669668431935141,-0.021750644196717284
-0.018422256039635793,-0.010203529306270305,-0.012607122397215047
-0.02431946548008578,-0.011496392887705403,-0.013873591313830258
-0.020433854432838364,-0.009093300728904106,-0.00835197872661773
0.003672115934761294,0.001312088318705508,0.00888447133928549
0.03915974796578775,0.018037609743962534,0.0278335327810661
0.06922934847549975,0.037300796488913726,0.04560247545963708
0.07742281645913379,0.048590523450962216,0.05738927139949909
0.06516345266659739,0.04814354830942518,0.05625232771299225
0.049435979380119746,0.04240015804989008,0.050227005897580494
0.04413181191879788,0.03648855133923889,0.050716323433545464
0.050403823890056834,0.033869180886145475,0.056281111097460784
0.056291544658840766,0.03546483407958954,0.055638282177663666
0.055764923381375,0.03906947231779148,0.0406037610236028
0.05687035363046981,0.04606727668422086,0.019927696513710545
0.05445548669146012,0.05436275081640293,0.009220277491418311
0.03039695968219071,0.04931625728292021,0.006298763967862769
-0.006120193224602157,0.023728131976004003,-0.0031709695222827804
-0.020476553455335587,-0.0061903654010721405,-0.01822947683006742
-0.006808121920390771,-0.019527526882419335,-0.02677814201722009
0.0039710090922418645,-0.010189110753317498,-0.026730169709772544
-0.004801267863021227,0.007612995959082508,-0.02367913095610863
-0.01940907789290498,0.013433285167699248,-0.022326311886087837
-0.022801278013517803,0.0075985774061297,-0.022638131884496884
-0.010285720085998044,0.005469437753431752,-0.019649457130514778
0.005674225656297814,0.008252218473323653,-0.014540406387351145
0.002865578843147056,0.004671611156709721,-0.015283977152788106
-0.02167212608525787,-0.007396717664790391,-0.021582741120650874
-0.04801742296604529,-0.022819763139977113,-0.028313255855541557
-0.06336534938588094,-0.04065551314260034,-0.03988417641188961
-0.06995523185795256,-0.05988025041301071,-0.05952403908091488
-0.0672414717614623,-0.07274159964691525,-0.07384377285400731
-0.05048447759921826,-0.07235710490150704,-0.06799115134540672
-0.0247796660558892,-0.061062571755140946,-0.04327581854843111
-0.0054986852304758915,-0.04822525344282442,-0.01504891284629513
-0.001181339622423207,-0.04126589855093587,-6.23639996818096e-05
-0.0020732747590318933,-0.03469103840445552,0.003094213830366707
0.0076241476836710585,-0.017383968676768582,0.008990010415670092
0.03263628619537848,0.012097165927405727,0.02091112881638523
0.06003008129526441,0.044240926643531873,0.031062069072285932
0.06959466233464266,0.06772874940365575,0.033096094908061875
0.05627256731550867,0.07959041229949895,0.0281501500102199
0.034666861931913144,0.08407458226782216,0.021505985428734803
0.01812810721798825,0.0820992405132875,0.010184520871113982
0.002234582177354741,0.06251884560337453,-0.009959051026110517
-0.02241224247520976,0.015894051538311776,-0.03137868630143974
-0.05010018639674323,-0.03787273242270844,-0.044657421002920424
-0.06030050843774683,-0.061201951100351426,-0.043443721624497514
-0.038913042502470456,-0.041203418154807034,-0.025473295254646842
-0.0022488151848538158,-0.003229755861428943,-0.00201963414354168
0.015613609226485036,0.01910458266247031,0.010007023333558063
0.006262523299592904,0.017153271829523656,0.007776311037247181
-0.007382186556186787,0.0024655725549301306,0.0004509396900069309
-0.009123357806906936,-0.01158290420542225,-0.002552126756209439
-0.0014280450857405032,-0.014903977568885642,0.005444856895296453
0.014199797148243608,-0.005027268796212313,0.021458013121287256
0.036612039623453364,0.012116390664676138,0.03499579828298469
0.05342596581569371,0.026083162291629273,0.04213887486192427
0.053663182607344956,0.028880361564473985,0.04284406778140319
0.044350051367117026,0.022987979591093204,0.03358061521328209
0.039136026286622626,0.017556991312202272,0.01911696451784702
0.036626272630952444,0.017542572759249465,0.01205544086156827
0.02759305720487298,0.020536825589115883,0.011738823632414467
0.009564581039378255,0.019133419768375924,0.005689515663278937
-0.017278871103876787,0.00515222958846998,-0.012141791014973853
-0.04889986943098793,-0.021123180075863397,-0.036276658891834165
-0.07115554882370786,-0.044490848228047206,-0.05216028988771659
-0.06782502506892436,-0.04620184984511373,-0.048250546830741606
-0.04301214866220399,-0.027164553763089856,-0.03189678722187323
-0.022583038565198655,-0.008564620453967822,-0.0192033146712526
-0.01959410699039295,-0.0014370491109631754,-0.013149209471372316
-0.01980285776704605,0.0022252633390500006,-0.005785460278174029
-0.010171856026005444,0.0054550192004789435,0.0033052919831359088
0.006808121920390771,0.005877963420427972,0.008850890724072209
0.027427005450717107,0.009809422192226892,0.015197626999382523
0.048055377652709494,0.022305501417993635,0.027267459553185058
0.06022459906441843,0.035469640263907136,0.03727928011748787
0.06156724610516449,0.04232806528512604,0.04000890441125323
0.06347446911004051,0.05210865037144732,0.0437939194688646
0.07105117343538132,0.0665272033242551,0.049464246209164515
0.07403061633852097,0.0713430000104929,0.050063900052258845
0.07088037734539242,0.06941572009913426,0.05334040865092622
0.06823778228639754,0.07104501658280153,0.06415336674960305
0.06316608728089389,0.06546984277438253,0.06905613657074224
0.048354270810190066,0.041025589335055734,0.05936093323559322
0.019916721827038648,0.004508200889911233,0.039111822261984126
-0.020291524357847614,-0.03253306164585196,0.012444016551893393
-0.060177155706088184,-0.06471527183651891,-0.01617626207131246
-0.083742271788723,-0.08818867604368999,-0.0367803681200334
-0.08994311872248657,-0.10313110308711645,-0.04572240622825594
-0.09672751896371222,-0.11887616291158254,-0.05600287171426502
-0.11899743136393123,-0.13777888583271355,-0.07693798668437403
-0.1479189026020512,-0.14816024395873514,-0.09631879889318254
-0.15407705051331755,-0.1395619802145441,-0.09701919458191671
-0.11521145136917735,-0.10574086117157466,-0.07611766022702099
-0.047599921412739096,-0.053439963427423236,-0.04596226776549367
0.006101215881270057,-0.01136181972681253,-0.02131409619894462
0.02958567825474345,0.005469437753431752,-0.004423046746663726
0.037484997416729955,0.010578411683043309,0.009153116260991747
0.037537185110893226,0.012702745151423655,0.01911696451784702
0.0325840985012152,0.011693446444727109,0.02489283033453154
0.02901635795478046,0.009367253235007455,0.024657766028038562
0.03087613760132623,0.009679655215651624,0.016713551914724973
0.036678460325115715,0.014591575588241474,0.005401681818593662
0.03185347078292936,0.014841497172756807,-0.006538625505100498
0.010807597027630785,0.008367566896946114,-0.013715282699253357
-0.0049103875871808,0.012592202912118794,-0.008625420879068743
-0.0006309966657923154,0.03382592522728705,0.0049603365900762406
0.005617293626301515,0.049253776886791376,0.01478506515533363
-0.01342172607162752,0.03192267623751643,0.0030414442921744065
-0.05622037962134539,-0.014730954933451949,-0.03522606535873291
-0.08798845235928031,-0.05701095837540196,-0.07155549378875938
-0.0805256120939321,-0.06594084883750759,-0.07319614670346544
-0.047671086450234476,-0.04509642745206514,-0.042330764091714455
-0.024238811770924355,-0.022560229186826573,-0.010702621791547478
-0.0196984823787195,-0.01460599414119428,0.00023986153723772922
-0.014185564140744534,-0.006762301334866849,0.004672502745390965
0.006234057284594755,0.016701490503669012,0.02451864633644068
0.03195784617125591,0.04654789511598112,0.053090952652198986
0.047367448956920875,0.06683479912058167,0.06999159656596939
0.04958779812677654,0.07268873161942162,0.06894580026361288
0.04719665286693198,0.06473449657378932,0.055518351409044805
0.04729153958359248,0.04787920817195704,0.03799886472920106
0.04753350071107675,0.03233120190451264,0.02383743957068553
0.044629967181265495,0.02402130921937776,0.016713551914724973
0.040398019618207257,0.021079924417004976,0.016550446069403316
0.03472853829774247,0.019075745556564692,0.01931844820912671
0.03152136727461762,0.014764598223675167,0.019241692517210637
0.03506538614188724,0.006844006468266093,0.01218016886093189
0.035653683785182334,-0.0038113041638588563,-0.001199307686188646
0.02727518670406031,-0.010958100244133913,-0.011527745479645267
0.020011608543699145,-0.010102599435600651,-0.010918497175061433
0.018336857994641347,-0.0092663233643378,-0.006054105199880286
0.012586722965015134,-0.01569219179697247,-0.00548323474125449
-0.0015561421532321762,-0.023468598022853462,-0.004466221823366518
-0.017814981053008605,-0.027212615606265884,0.0024993572180171384
-0.03156406629711484,-0.031071981613300766,0.007454896577348624
-0.0425377150789015,-0.039155983635508325,0.0012856578395942285
-0.0489520571251512,-0.047042932100694185,-0.009484125182379814
-0.04334425217051574,-0.04699967644183576,-0.0111967365582572
-0.025140235579199092,-0.039184820741413946,-0.003794609519100876
-0.009142335150239036,-0.028529510109288996,-0.0028927301390870145
-0.007453351593682161,-0.018580708571851626,-0.018800347288693217
-0.015253039703175143,-0.014178243736927651,-0.03937566995294563
-0.02332789929098357,-0.015624905216526031,-0.04721434498987462
-0.03191040281292566,-0.01569699798129007,-0.04490207977090291
-0.03881815578580996,-0.011092673405026785,-0.04069011117700838
-0.03408330862445108,-0.0031240198064416856,-0.029023246005765235
-0.014617298701549802,0.009612368635205187,-0.007977794728526874
0.011808651888399045,0.024266424619575493,0.0073109796550059865
0.03232316003039883,0.03432576839631772,0.009479327951635058
0.038566705986659636,0.041054426440961356,0.011681256863477412
0.03416870666944553,0.046523864194393104,0.022120030964063387
0.029941503442220317,0.04797052567399149,0.033887637980946385
0.033713250429475136,0.044740769812562545,0.039414047798903666
0.0413373981131462,0.038761876521464914,0.03808041765186189
0.04003270575906434,0.03351352324664288,0.034914245360323864
0.027346351741555683,0.033297244952350764,0.03289461121678219
0.014716929754043326,0.03795924374042528,0.030208161999719617
0.010983137453452708,0.04187147777495379,0.029776411232691705
0.014024256722421686,0.04043923484830822,0.034837489668407794
0.016586198072255146,0.03536871039323748,0.03915979456943167
0.018683194510452167,0.03542638460504872,0.03967789548986517
0.023408553000144994,0.04330852688591697,0.039236550261347744
0.024276766457588556,0.04660556932779235,0.0341706745948869
0.014968379553193648,0.037392113990948175,0.021553957736182346
-0.004156038189729837,0.019690937149217824,0.004624530437943419
-0.026316830865789273,0.0009035626517092876,-0.011829971016564805
-0.035933599599330804,-0.007315012531391147,-0.019491148515937876
-0.03056775577217961,-0.006248039612883371,-0.019308853747637203
-0.027531380839043655,-0.013611113987450544,-0.025550050946562916
-0.03236585905289606,-0.028846718274250765,-0.03579213858661395
-0.03385558050446588,-0.0340950715490728,-0.03273630260220528
-0.026165012119132476,-0.026804089939269662,-0.019198517440507847
-0.016092787145620555,-0.01901326516043586,-0.010031009487281835
-0.01546179047982824,-0.019580394909912965,-0.0072102378093661405
-0.026748565426594543,-0.02904377183127247,-0.008855687954816963
-0.04092938523150605,-0.04191953961812982,-0.017457122680161932
-0.045825539811187775,-0.04831176476054127,-0.02591943771390902
-0.03050133507051726,-0.038526373489902385,-0.020680861740637012
0.0018170806240485472,-0.015793121667642122,-0.002489762756527629
0.0313837815354599,0.006877649758489311,0.017092533143560584
0.04346286056634136,0.0226082910300026,0.030342484460572746
0.041441773501472746,0.027827807198919016,0.03588808320150905
0.036332123809304895,0.022031548911890287,0.037706233653771036
0.033181884816176344,0.013947546889682727,0.039466817337095964
0.03614709471181692,0.010068956145377433,0.03918378072315545
0.04973487253760032,0.008314698869452486,0.03603200012385168
0.06154352442599936,0.006267264350153782,0.03159456168495369
0.048240406750197466,0.00039891329836101524,0.018066370984745766
0.009431739636053557,-0.012572978174848384,-0.011172750404533426
-0.0311370760721426,-0.02652533124884871,-0.04110747025180203
-0.056452852077163614,-0.0335423603525485,-0.05084584866365384
-0.0591713565094869,-0.03081725384446783,-0.03915979456943167
-0.03802585170169479,-0.019469852670608107,-0.019774185129878396
-0.012102800710046591,-0.007290981609803134,-0.0036842732119715207
0.0005455986207978667,0.0038209165324940616,0.006682542427443136
0.006290989314591054,0.020411864796858213,0.013451435008291854
0.01382499461743464,0.038271645721069454,0.020388230665206983
0.02093200969530598,0.04546650364452053,0.027545698936380824
0.019233537467083058,0.03832931993288068,0.027948666318940208
0.003681604606427344,0.023819449478038452,0.015773294688753072
-0.01382499461743464,0.011443524860211775,-0.004576558130495873
-0.010926205423456408,0.007117958974369441,-0.01606112853343835
0.021358999920278225,0.013572664512909723,-0.003775420596121858
0.06165738848599196,0.023920379348708106,0.022590159577049337
0.0801081105406259,0.026775252833364047,0.04068531394626363
0.07703852525665877,0.026438819931131865,0.04701286129859493
0.07205222829614957,0.0335519727211837,0.05089861820184614
0.0705719955162458,0.04788882054059224,0.05062517604939513
0.06637800263985176,0.06579666330797951,0.04351088285492408
0.05987351821277459,0.08495892018226105,0.04122260378967614
0.052794969149901394,0.10371745757386397,0.04914762898001072
0.03047286905551911,0.10931185611955338,0.04755974560349695
-0.021358999920278225,0.07149679790865618,0.017332394680798315
-0.08299266672710506,-0.012005848425371278,-0.03178165368399912
-0.1186843051989516,-0.09314865825945587,-0.0791159294424926
-0.11598952244579343,-0.1289835685315008,-0.11230317173470482
-0.08654617426604073,-0.11814562289530695,-0.11792072893681244
-0.05238695626826125,-0.08612682297143848,-0.09241385306695231
-0.03146443524462132,-0.05851529406681157,-0.058933979699310066
-0.020376922402842064,-0.04006435247153522,-0.04110267302105728
-0.011751719858402745,-0.026756028096093638,-0.040479033024239185
-0.017198217394715363,-0.020604112169562316,-0.04586632315059858
-0.0375893728050565,-0.020113881369166853,-0.04405296992908135
-0.048173986048535115,-0.021493256268318797,-0.031105244148988725
-0.0361992824059802,-0.022968754853822795,-0.014127844543302251
-0.014498690305724178,-0.021680697456705297,-0.001731800298856405
0.00038903553830804406,-0.014990488886602489,0.0023506430649297464
0.003814446009752042,-0.0045418441801344505,0.0023026707574822004
0.0011908282940892567,0.0012688326598470846,0.002341048603440237
-0.0059873518212774585,-0.0044409143094647965,-0.0005181009204334951
-0.019475498594567327,-0.017186915119746873,-0.008212859035019848
-0.028579879058142164,-0.025237273851731218,-0.01494337376991053
-0.022379032124378584,-0.02337247433650141,-0.013935955313512067
-0.009213500187734409,-0.017456061441532618,-0.0058190408933873105
-0.0019878767140374446,-0.015101031125907348,0.001962067374604625
-0.00010437538832654841,-0.017321488280639747,0.0035931258278211835
0.0008587247857775119,-0.020536825589115883,0.00013432246085312837
0.0006025306507941658,-0.021286590342661886,-0.004720475052838511
0.0008777021291096116,-0.016076686542380675,-0.008457517803002332
0.0013948347349093287,-0.003109601253488878,-0.009373788875250458
-0.00014233007499074782,0.013168945030231105,-0.007838675036928991
0.000782815412449113,0.02426161843525789,-0.006768892580848718
0.005251979767158595,0.02766920311643813,-0.007344560270219269
0.00361992824059802,0.025626574781457027,-0.008241642419488375
-0.009564581039378255,0.014365684925314152,-0.009671217181425242
-0.025543504125006212,-0.009424927446818686,-0.01391676639053305
-0.03197682351458801,-0.036921107927823126,-0.02347285003408418
-0.028802862842294337,-0.05434352607913252,-0.03493343428330288
-0.02277755633435268,-0.05452616108320142,-0.036540506582795666
-0.013198742287475349,-0.039857686545878304,-0.024921613719000067
0.0005028995983006423,-0.02058969361660951,-0.008975618723435828
0.012743286047504956,-0.003518126920485098,0.008990010415670092
0.02444756254757745,0.01380816754447225,0.029291890927471493
0.04060677039486035,0.03200918755523327,0.045218697000056714
0.056059072203022545,0.04597595918218641,0.053215680651562604
0.06526308371909091,0.05553065360558036,0.05748041878364943
0.0719620859153221,0.06507092947602151,0.06418694736481634
0.07483240909430218,0.0687572728476227,0.0697997073361792
0.0622931294876173,0.05301701920747421,0.05830554247174722
0.032565121157883105,0.021584573770353246,0.024729724489209882
0.0033115464114513997,-0.0007545709378636072,-0.009148319030246993
-0.008440173446951346,0.0013985996364223546,-0.020733631278829313
-0.004488141698041581,0.017542572759249465,-0.014809051309057401
0.0034396434789430727,0.029418654208045476,-0.010366815639414656
0.015101220956518344,0.03591661540544418,-0.010131751332921683
0.03563470644185023,0.047475488689278415,-0.0028015827549366774
0.05489196558809841,0.061278850049433065,0.01147977317219772
0.05646708508466269,0.06295140219195877,0.018632444212626807
0.037190848595082406,0.045947122076280794,0.008284817496191168
0.0052282580879934705,0.01580754022059493,-0.0168478743755781
-0.030306817301363236,-0.02005140097303802,-0.04721434498987462
-0.057714845408748244,-0.05269981104251244,-0.07073037010066159
-0.0657185399590613,-0.06936765825595823,-0.07760000452715016
-0.055646314985549374,-0.065210308821232,-0.06918086457010586
-0.039150259294121706,-0.049321063467237816,-0.05164698619802786
-0.028579879058142164,-0.03582529790340973,-0.02942621338832462
-0.030890370608825303,-0.033998947862720744,-0.010366815639414656
-0.0424997603922373,-0.043971780321746125,-0.0017653809140696871
-0.053084373635715915,-0.05695809034790834,0.0004317507670279126
-0.05157567484081399,-0.06256690744655057,0.005694312894023692
-0.03076227354133363,-0.05516057741312497,0.014799456847567893
0.0024717989690059873,-0.0357676236915985,0.02330494695801777
0.02993201477055427,-0.011856856711525598,0.03489505643734485
0.04317820041635987,0.005406957357302918,0.05643941971203768
0.04942174637262067,0.005378120251397302,0.08202784850455863
0.060969459790203344,-0.007218888845039095,0.1017732502499685
0.08241860209130904,-0.013505377932463288,0.11884179723980531
0.09560311137128531,-0.009982444827660586,0.13545460730889045
0.08237590306881182,-0.013058402790926247,0.13916286667458574
0.061258864276017864,-0.022343950892534457,0.12741444858068177
0.06589882472071625,-0.009439345999771493,0.11719154986360975
0.09650927951539308,0.035628244346388026,0.10812958098676834
0.11308124458014915,0.08767922050602411,0.08131785835433496
0.07980921738314534,0.12156762612944,0.03538437397330981
0.0026615724023269843,0.11891941857044097,-0.022403067578003907
-0.08308280910793253,0.06920424798915974,-0.08961227031201563
-0.14624889638882643,-0.0025809209785525927,-0.14869976139515784
-0.18029899466244634,-0.05199810813214246,-0.17520925849067168
-0.19484512832650075,-0.06713278254827303,-0.1717216717392351
-0.190134002844307,-0.07013664774677464,-0.16179620132833786
-0.1598556515579419,-0.07464004245236827,-0.15087290692253166
-0.11244550357852381,-0.07094889289644948,-0.12853700057495432
-0.06644916767734714,-0.05370430356489138,-0.09833363580597947
-0.03159727664794602,-0.033974916941132735,-0.06951667072223867
-0.00846389512611647,-0.020099462816214046,-0.04273373147427384
0.002813391148983782,-0.008598263744191039,-0.018757172211990424
0.006722723875396322,0.005435794463208533,-0.002086795373968244
0.009303642568561882,0.01886427344659018,0.006298763967862769
0.007149714100368566,0.025842853075749146,0.010477151946544012
-0.001375857391577229,0.025996650973912426,0.010697824560802724
-0.006101215881270057,0.0222334086532296,0.0045189913615588185
-0.0022820255356849903,0.015797927851959725,-0.005583976586894336
0.0016225628548945253,0.008843379144388772,-0.0145452036180959
-0.0012382716524195062,0.005051299717800326,-0.02125173219926281
-0.01085029605012801,0.0032441744143817505,-0.03031370107610422
-0.023081193827666272,-0.00048542461607786194,-0.041961377324368346
-0.0326410305312115,-0.009497020211582724,-0.05196840065792641
-0.039207191324118006,-0.02626099111138057,-0.06260865844979208
-0.04266581214639317,-0.04367860307837237,-0.07299466301218575
-0.03998051806490106,-0.04806184317602594,-0.07194886670982925
-0.03464788458858105,-0.039977841153818375,-0.05630989448192931
-0.032617308852046376,-0.031961125712057246,-0.038387440419526186
-0.030197697577203666,-0.02661184256656556,-0.028025422010856282
-0.021567750696931322,-0.017826137633988017,-0.02063288943318947
-0.007329998862023513,-0.002850067300338338,-0.007085509810002521
0.009901428883523024,0.014120569525116419,0.010189318101858738
0.024860319765050622,0.025318978985130462,0.02198570850321026
0.031644720006276265,0.028471835897477763,0.028802573391506523
0.029315251112261027,0.025059445031979922,0.034223444133079206
0.022165537011892462,0.016538080236870523,0.03717374104110328
0.021387465935276375,0.009977638643342984,0.03856973518782686
0.032920946345359976,0.011308951699318903,0.039505195183054
0.044459171091276596,0.014500258086207024,0.04140969578872157
0.04389459512714663,0.012813287390728513,0.04738224806594103
0.04070640144735388,0.01336119240293521,0.05811845047270179
0.04815975304103604,0.02383386803099126,0.07093185379194128
0.060115479340258855,0.03624824212335876,0.07983071682346103
0.06862681782470557,0.043789145317677226,0.08200386235083486
0.0751597682667809,0.0502150137503119,0.08070861004975112
0.07489882979596453,0.05378600869829062,0.07677488083905237
0.06348395778170655,0.0507869496841066,0.06919045903159537
0.05082132544336303,0.04427456993375509,0.05954802523463865
0.043998970515473176,0.036185761727229926,0.04873026990521707
0.03473802696940852,0.025597737675551412,0.03736563027089346
0.01637744729560205,0.010703372475300975,0.025895451560185245
-0.0050811836771696975,-0.007497647535460046,0.01407507500510995
-0.01839853436047067,-0.018465360148229165,0.004207171363149771
-0.01766790664218483,-0.014062895313305188,0.0003070227676642934
-0.009564581039378255,-0.006252845797200974,-0.00010074184563984626
-0.005949397134613259,-0.009775778902003675,-0.005228981511782497
-0.008321565051125723,-0.017984741716468904,-0.015221613153106295
-0.007329998862023513,-0.017456061441532618,-0.021721860812248757
0.0036246725764310446,-0.005498274859337367,-0.019323245439871465
0.01770586132884903,0.010588024051678514,-0.011964293477417932
0.02241224247520976,0.01971496807080584,-0.0050706728972055954
0.01739747949970241,0.021474031531048387,0.004283927055065844
0.012643654995011432,0.02509308832220314,0.01713091098951862
0.010001059936016547,0.030365472518613185,0.0267349669405173
0.00591144244794906,0.03161027425687225,0.03409871613371559
0.005408542849648417,0.029154314070577333,0.04671063576167539
0.011974703642554917,0.02199790562166707,0.059274583082187644
0.02387824224761446,0.014024445838764367,0.06324189290809969
0.042808142221383925,0.01809047777145616,0.06412938059587928
0.062468669913439225,0.02813059681092798,0.0661346230471867
0.06791516744975185,0.02027248545164774,0.06326587906182346
0.05642438606216547,-0.004609130760580887,0.05392087357104153
0.04092464089567303,-0.021474031531048387,0.041851041017238994
0.03191514714875869,-0.0146396374314175,0.03243407706528575
0.023527161395970615,0.011227246565919658,0.0315513866082509
0.005935164127114184,0.03213895453180854,0.03534599612735178
-0.011490781387586375,0.027842225751871823,0.033311970291575836
-0.010921461087623383,0.0072669506882151215,0.025276608794111904
0.005005274303841299,-0.010165079831729484,0.0179464402161269
0.021800223152749543,-0.01545668876540994,0.014780267924588874
0.03646022087679657,-0.005858738683157561,0.018992236518483398
0.04429786367295375,0.00887702243461199,0.02439391833707706
0.03355668734698531,0.009943995353119765,0.01973580728392036
0.014304172536570157,-0.002494409660835746,0.008265628573212148
0.015219829352343967,-0.0037536299520476253,0.0015543027613004854
0.039700602250752594,0.022060386017795905,0.006653759042974609
0.05752032763959422,0.05695809034790834,0.018157518368896102
0.04855353291517711,0.07383740967132864,0.023002721421098233
0.02200897392940264,0.06391263905547928,0.014003116543938631
-0.009654723420205728,0.029822373690724092,-0.010812958098676833
-0.04375226505215588,-0.01790784276738726,-0.04506998284696932
-0.07462840265348211,-0.05854893735703479,-0.07029382210288893
-0.0933922508730957,-0.07694701092481752,-0.07511024177062253
-0.09573120843877699,-0.07388066533018707,-0.06561172489600844
-0.08591517760024842,-0.06098567280605931,-0.05526409817957281
-0.0810996767297281,-0.056549564680912115,-0.05952403908091488
-0.08354300968373596,-0.06250442705042172,-0.07436187377444081
-0.06670536181233049,-0.05276229143864127,-0.07090307040747276
-0.022957841096007625,-0.015091418757272143,-0.04012403794912734
0.019020042354596936,0.024622082259078085,-0.007939416882568837
0.03965790322825537,0.04460619665166967,0.008270425803956904
0.04802691163771134,0.05346880053332885,0.017845698370487054
0.05156144183331492,0.05638134822979602,0.025166272486982548
0.04339643986467901,0.044019842164922156,0.023362513726954824
0.022435964154374884,0.01801357882237452,0.015226410383851051
-0.0012762263390837054,-0.011409881569988557,0.007167062732663349
-0.022715879968523353,-0.03954047838091654,-0.0036410981352687295
-0.04325885412552129,-0.06361946181210552,-0.01896345313401487
-0.057036405384625684,-0.07813894463558296,-0.029291890927471493
-0.058526126836195506,-0.08096498101433329,-0.02928229646598198
-0.05215922814827605,-0.07589445655926255,-0.025828290329758682
-0.038903553830804405,-0.061240400574892245,-0.019659051592004286
-0.01643437932559835,-0.03307616047374105,-0.0036075175200554472
0.0081080699386396,0.0014706924011863936,0.019208111901997355
0.022649459266861006,0.02718377850036027,0.032942583524229734
0.021041129419465555,0.0287217574819931,0.027526510013401805
0.007277811167860239,0.004642774050804105,0.010573096561439104
-0.011087512841779256,-0.029111058411718908,-0.009512908566848341
-0.029258319082264728,-0.05776072312894797,-0.03426182197903724
-0.04026517821488256,-0.0728377233332673,-0.05497626433488754
-0.0407111457831869,-0.06985788905635369,-0.0540503988011499
-0.03340012426449549,-0.05166648141422788,-0.03625267273811039
-0.017160262708051162,-0.02486719765927582,-0.027109150938608155
-0.0009014238082747363,0.0006824781730995682,-0.037034621349505394
-0.005588827611303365,0.012875767786857348,-0.05016464189789869
-0.03178705008126702,0.007853305174962638,-0.055374434486702165
-0.05535216616390183,-0.005291608933680456,-0.059044316006439425
-0.05883925300117515,-0.016244902993496766,-0.06276216983362423
-0.053881422055664104,-0.026530137433166314,-0.06296365352490392
-0.05770535673708219,-0.03982404325565509,-0.06159644276264886
-0.05906223678532732,-0.05118586298246762,-0.05864614585462479
-0.04391831680631175,-0.05571809479396687,-0.05099456281674123
-0.02557197014000436,-0.054031124098488356,-0.039831406873697316
-0.020765957941150107,-0.04900385530227604,-0.0295125635417302
-0.02527307698252379,-0.04141008408046395,-0.020009249436371373
-0.02518767893752934,-0.029216794466706164,-0.008040158728208683
-0.01911967340709046,-0.012462435935543525,0.001386399685234075
-0.017720094336348104,0.006992998182111773,-0.0017941642985382146
-0.023859264904282362,0.02395882882324893,-0.017241247296647975
-0.028608345073140314,0.025266110957636832,-0.03610875581576776
-0.025614669162501585,0.006541216856257129,-0.04782359329445845
-0.012800218077501254,-0.011198409460014042,-0.04132334563531599
0.010651033945140963,-0.007262144503897518,-0.021338082352668392
0.03504640879855514,0.009939189168802163,-0.009316222106313403
0.042855585579714174,0.022617903398637805,-0.006524233812866234
0.02954772356807925,0.029529196447350334,0.004993917205289522
0.013497635444955918,0.03519088157348619,0.01949594574668263
0.015025311583189946,0.036421264758792454,0.018891494672843553
0.03161150965544509,0.03109601253488878,0.007833877806184237
0.046745940962794615,0.027563467061450873,0.003358061521328209
0.05167530589330751,0.03300406770897701,0.011139169789320145
0.04802216730187832,0.0398432679929255,0.02148199927501103
0.04092464089567303,0.03898776718439224,0.02623605494306282
0.03689669977343486,0.03587816593090336,0.028145352779475146
0.036958376139264185,0.03991536075768954,0.028840951237464562
0.03264577486704453,0.04915765320043933,0.02587626263720623
0.01778177070217743,0.050041991114878205,0.017816914986018527
-0.00012809706749167303,0.034551659059245045,0.00663457011999559
-0.00491987625884685,0.018989234238847845,0.0010314046101222356
0.004369533302215958,0.01886427344659018,0.003785015057611367
0.012245130785037339,0.02360797736806394,0.004806825206244094
0.015485512158993364,0.023079297093127654,0.0009786350719299352
0.016590942408088172,0.019450627933337697,-0.0023842236801430283
0.011115978856777406,0.016393894707342448,-0.002638476909615021
0.005669481320464789,0.01818660145780821,0.002192334450352845
0.009000005075248287,0.021502868636954,0.008212859035019848
0.016149719175616854,0.019787060835569876,0.009978239949089536
0.02415815806176293,0.01866241370525087,0.014799456847567893
0.034624162909415925,0.024809523447464586,0.02965648046407284
0.04145600650897182,0.02916873262353014,0.04251785609075988
0.03655036325762404,0.018374042646194716,0.03847858780367652
0.021088572777795803,-0.003748823767730023,0.02189935834980468
0.008316820715292697,-0.01716288419815886,0.008304006419170186
0.010295208757664093,-0.010112211804235856,0.005627151663597127
0.01943754390790313,0.005988505659732832,0.009105143953544202
0.021358999920278225,0.017057148143171604,0.015499852536302062
0.018787569898778715,0.025049832663344717,0.030726262920153114
0.02207539463106499,0.03234562045746545,0.05175252527441246
0.03002215715138174,0.03417677668247204,0.06358729352172202
0.027109134949904436,0.02514595634969677,0.056919142786513145
-0.0020495530798667685,-0.0024271230803893096,0.03325920075338353
-0.04753350071107675,-0.0450243346873011,0.0009162710722481256
-0.07922566407568327,-0.08151288602653999,-0.029790802924925967
-0.07953404590482989,-0.09601795029706461,-0.04673462191539916
-0.05814657996955351,-0.0902649476688943,-0.04378432500737509
-0.03617081639098205,-0.07331353558070997,-0.03198313737527882
-0.020561951500330036,-0.053334227372435976,-0.022753265422370994
-0.005745390693793187,-0.03400856023135595,-0.01189713224699137
0.008696367581934693,-0.013043984237973438,0.003909743056974987
0.018355835337973445,0.00693051778598294,0.014257369773410624
0.023104915506831396,0.018965203317259833,0.015255193768319578
0.023024261797669972,0.029644544870972796,0.01948635128519312
0.014664742059880052,0.04994586742852615,0.0302945121531252
-0.00037005819497594434,0.06558038501368739,0.03217022937432424
-0.014550877999887453,0.05310833670950866,0.015471069151833534
-0.02063311653782541,0.023694488685780786,-0.006922403964680865
-0.016552987721423974,0.008497333873521385,-0.014223789158197343
-0.010333163444328292,0.011414687754306159,-0.004897972590394431
-0.009797053495196476,0.012625846202342013,0.0016070722994927858
-0.009327364247727008,0.004546650364452053,-0.005809446431897802
-0.0025334753348353113,-0.006243233428565769,-0.01911696451784702
0.007756989086995757,-0.012034685531276894,-0.024940802641979083
0.018208760927149674,-0.008362760712628512,-0.015259990999064332
0.02218451435522456,-0.005613623282959829,0.00011033630712935544
0.011969959306721893,-0.018114508693044176,0.0018661227597095334
-0.006423830717915752,-0.03958854022409256,-0.012947725780092623
-0.02319505788765887,-0.05116663824519721,-0.03213664875911096
-0.03532632461270361,-0.040410397742402605,-0.04183185209425998
-0.03980972197491217,-0.015274053761341042,-0.038809596725064587
-0.038334233530841415,-0.002302162288131642,-0.036348617353005486
-0.037774401902544476,-0.008684775061907886,-0.0383538598043129
-0.04014656981905694,-0.014413746768490178,-0.030529576459618176
-0.03717661558758333,-0.009160587309350543,-0.009546489182061623
-0.01858356345795864,0.002763555982621491,0.013355490393396762
0.007263578160361164,0.01699466774704277,0.028270080778838764
0.024053782673436382,0.03018764369886189,0.03212705429762145
0.03237060338872908,0.038579241517396015,0.030731060150897868
0.03995679638573594,0.03990094220473673,0.03253961614167034
0.04876228369183021,0.03790637571293166,0.03834906257356815
0.053824490025667804,0.03546002789527193,0.04219644163086132
0.04859148760184131,0.029899272639805734,0.040814839176372006
0.03717661558758333,0.022170928257100764,0.03441533336286939
0.026406973246616748,0.015687385612654866,0.023789467263237985
0.015319460404837492,0.010020894302201407,0.014458853464690316
0.004331578615551759,0.003263399151652161,0.012539961166788483
-0.0013331583690800047,-0.003777660873635638,0.01589322545737194
0.0004649449116364429,-0.006363388036505833,0.020469783587867812
0.007605170340338959,3.3643290223218155e-05,0.02757448232084935
0.01615446351144988,0.010958100244133913,0.03482309797617353
0.020452831776170462,0.016783195637068257,0.03649253427534812
0.01866896150295309,0.01621606588759115,0.03522606535873291
0.013407493064128445,0.011746314472220739,0.0324916438342228
0.007012128361210843,0.003321073363463392,0.021707469120014495
0.000920401151606836,-0.0032201434927937376,0.004514194130814064
-0.005024251647173399,-0.0007737956751340176,-0.009042779953862391
-0.012297318479200613,0.003297042441875379,-0.01969742943796232
-0.01864998415962099,-0.0007113152790051838,-0.033062514292848594
-0.017615718948021556,-0.006973773444841363,-0.04325183239470733
-0.012126522389211716,-0.010448644706468039,-0.04589510653506711
-0.01592673539146468,-0.016754358531162642,-0.0471951560668956
-0.03118451943047285,-0.025208436745825603,-0.04791474067860879
-0.04029364422988071,-0.02457402041590206,-0.038632099187508664
-0.03195784617125591,-0.013697625305167391,-0.01672314637621448
-0.014925680530696423,-0.00437362772901836,0.006744906427124946
0.0031881936797927514,0.003003865198501621,0.023611969725682063
0.019475498594567327,0.013394835693158427,0.034463305670316934
0.027659477906535328,0.018297143697113074,0.03869446318719048
0.030064856173878968,0.012058716452864908,0.03869446318719048
0.03418768401277763,0.003734405214777215,0.04035910225562032
0.038054317716692945,0.0017350325386545362,0.04153442378808519
0.03546391035186133,0.004128512328820628,0.03865128811048769
0.02492674046671297,0.008362760712628512,0.03497181212926092
0.011988936650053992,0.016081492726698277,0.03166652014612501
0.005612549290468489,0.02349743512875908,0.025199853102195833
0.008041649236977252,0.02418952567049385,0.011172750404533426
0.009317875576060957,0.014235917948738882,-0.015495055305557308
-0.004488141698041581,-0.010938875506863503,-0.04936830159426943
-0.03270270689704083,-0.04323643412115293,-0.06967018210607083
-0.05664736984631764,-0.06175466229687572,-0.06735311965635436
-0.060419116833572456,-0.057592506677831876,-0.05355628403444018
-0.04585400582618593,-0.03905505376483867,-0.03670361242811732
-0.025045348862538595,-0.017432030519944606,-0.019198517440507847
-0.007311021518691414,0.00032201434927937373,-0.0043175076702791255
0.002737481775655383,0.009612368635205187,0.00415440182495747
0.0027279931039893334,0.007757181488610585,0.004941147667097222
-0.00557459460380429,-0.003003865198501621,0.0003070227676642934
-0.012743286047504956,-0.014831884804121603,-0.00773313596054439
-0.01183237356756417,-0.021589379954670848,-0.017020574682389267
-0.0098207751743616,-0.024771073972923767,-0.024019734338986205
-0.012956781159991078,-0.025996650973912426,-0.025113502948790247
-0.01474065143320845,-0.022891855904741153,-0.019308853747637203
-0.006817610592056821,-0.014721342564816744,-0.00970000056589377
0.007899319161986504,-0.005224322353234019,-0.0023266569112059734
0.019257259146248182,0.005579979992736611,0.0019428784516256066
0.02164366007025972,0.020935738887476896,0.008515084571939387
0.015670541256481336,0.0302116746204499,0.012213749476145171
0.00979230915936345,0.02275728274384828,0.005228981511782497
0.014550877999887453,0.013087239896831861,-0.001060187994590763
0.02954772356807925,0.021680697456705297,0.006437883659460652
0.04098631726150235,0.042842327007109514,0.018987439287738644
0.036626272630952444,0.0537379468551146,0.024768102335167918
0.026193478134130626,0.04906152951408727,0.02888412631416735
0.02716132264406771,0.04213101172810434,0.03712576873365573
0.040739611798185055,0.04487053678913781,0.0471423865287033
0.058454961798700134,0.055886311245082955,0.05440059664551698
0.06342228141587723,0.053800427251243434,0.04959377143927289
0.04247129437723915,0.025746729389397094,0.03277947767890808
0.01441329226072973,-0.004287116411301513,0.021505985428734803
0.0021302067890281925,-0.0131593326615959,0.024264393106968686
0.0012050613015883317,-0.008598263744191039,0.035638627202781804
0.006442808061247852,0.0013457316089287262,0.05219866773367463
0.021453886636938722,0.015946919565805406,0.06600989504782308
0.03986190966907544,0.02678005901768165,0.06395188305832336
0.04656091186530664,0.03252344927721675,0.04461904315696239
0.030306817301363236,0.03463336419264429,0.0177353620633577
-0.007794943773659956,0.020094656631896444,-0.010448368562075485
-0.05174647093080289,-0.016095911279651084,-0.037034621349505394
-0.08283610364461523,-0.056477471916148075,-0.059317758158890434
-0.09368639969474325,-0.0804411069237146,-0.07495673038679038
-0.08410758564786591,-0.07588003800630974,-0.07538368392307354
-0.05770535673708219,-0.04679781670049645,-0.057571566167799765
-0.024736967033391972,-0.014077313866257995,-0.0330721087543381
0.0030743296198001533,0.008108032943795576,-0.008841296262582699
0.01823722694214782,0.020695429671596766,0.013307518085949217
0.0197174597220516,0.023992472113472146,0.02529100048634617
0.010399584145990641,0.013913903599459508,0.021990505733955015
-0.007543493974509635,-0.00855981426965022,0.007071118117768257
-0.03080971689966388,-0.035051502228275716,-0.013955144236491086
-0.053833978697333855,-0.058150024058673776,-0.03466478936159663
-0.06813340689807099,-0.07105462895143674,-0.04463343484919665
-0.06465580873246371,-0.06705107741487377,-0.03941884502964842
-0.04963524148510679,-0.05305546868201503,-0.027588874013083613
-0.04037429793904213,-0.04592309115469278,-0.01892027805731208
-0.043363229513847835,-0.054305076604591704,-0.02189935834980468
-0.0558028780680392,-0.07436608994626492,-0.041548815480319454
-0.06753562058310984,-0.09053409399068005,-0.06496889597621133
-0.06347446911004051,-0.08707364128200619,-0.07240460363058095
-0.04597261422201155,-0.06729619281507151,-0.06267581968021864
-0.03048235772718516,-0.04906152951408727,-0.049085264980328905
-0.020590417515328186,-0.04180899737882496,-0.03671320688960683
-0.01346916942995777,-0.03811784782290617,-0.021194165430325755
-0.010855040385961034,-0.02715013521013705,-0.00392413474920925
-0.011661577477575272,-0.010650504447807347,0.006255588891159978
-0.01053242554931534,0.0020618530722515127,0.0050706728972055954
-0.010741176325968436,0.009761360349050867,-0.00047012861298594927
-0.01900580934709786,0.012774837916187692,-0.0014007913774683387
-0.026971549210746713,0.007108346605734236,0.0022834818345031822
-0.025163957258364216,-0.0004517813258546438,0.005785460278174029
-0.02032473470867879,0.0024559601862949253,0.008606231956089724
-0.018412767367969745,0.013885066493553892,0.01256874455125701
-0.01113021186427648,0.02407417724687139,0.015283977152788106
0.00723036780952999,0.030528882785411673,0.013811227314148447
0.028262008557329493,0.03565708145229364,0.010832147021655851
0.04269902249722435,0.038704202309653685,0.008092928266400984
0.04665579858196714,0.03464778274559709,0.0002110781527692017
0.03780286791754262,0.021027056389511346,-0.015188032537893014
0.021264113203617725,0.005647266573183048,-0.027425768167761957
0.009004749411081312,-0.0005527111965242982,-0.02468654941250709
0.00690300863705127,0.0017302263543369336,-0.011263897788683764
0.007662102370335258,0.0030951827005360703,-0.002873541216107996
0.0019451776915402202,-0.0006776719887819656,-0.008337587034383467
-0.004530840720538806,-0.007247725950944711,-0.020369041742227964
-0.00043647889663829336,-0.011856856711525598,-0.026029774021038374
0.009678445099370853,-0.009828646929497304,-0.022105639271829125
0.013578289154117342,-0.0016917768797961128,-0.012842186703708023
0.012857150107497554,0.008631907034414257,-0.0026480713711045305
0.016102275817286606,0.019955277286685967,0.005665529509555164
0.022217724706055736,0.031110431087841586,0.012621514089449311
0.024860319765050622,0.0365173884451445,0.017845698370487054
0.023071705156000225,0.034695844588773124,0.019855738052539224
0.0228961647301783,0.034931347620335645,0.021141395892133454
0.0294813028664169,0.04286635792869753,0.02545890356241258
0.03390302386279613,0.04778789066992259,0.03031370107610422
0.02328045593265332,0.041669618033614485,0.03200232629825783
0.00749130628034636,0.03296081205011858,0.03307690598508286
0.007453351593682161,0.026097580844582084,0.033921218596159666
0.023493951045139443,0.01863838278366286,0.032635560756565436
0.03754667378255928,0.011962592766512854,0.03016978415376158
0.03868531438248526,0.0069497425232533504,0.02948857738800643
0.034097541631950154,0.004493782336958425,0.03288501675529268
0.03275015025537108,0.002643401374681426,0.0344776973625512
0.03354245433948624,-0.003936264956116524,0.027536104474891313
0.033988421907790584,-0.011188797091378837,0.01871879436603239
0.03346180063032481,-0.0068343940996308875,0.018958655903270116
0.03086664892966018,0.009328803760466634,0.026643819556366962
0.02639274023911767,0.019767836098299466,0.02896567923682818
0.020163427290355942,0.01214042158626415,0.016118695302375405
0.011172910886773704,-0.002859679668973543,-0.005977349507964212
0.0035060641806054214,-0.006123078820625704,-0.020388230665206983
0.0032451257097890506,0.0037392113990948176,-0.020373838972972718
0.0057169246787950375,0.011904918554701624,-0.012381652552211582
0.003477598165607272,0.011496392887705403,-0.0032525224449436083
-0.000460200575803418,0.009535469686123545,0.0002158753835139563
0.0011244075924269079,0.012664295676882834,-0.0026144907558912486
0.0082029566553001,0.019926440180780353,9.594461489509169e-06
0.01507749927735322,0.025535257279422578,0.01230489686029551
0.023432274679310118,0.031980350449327656,0.02424520418398967
0.0359146222559987,0.050061215852148615,0.03247725214198854
0.03991884169907174,0.06743076597596438,0.03743279150132002
0.025092792220868843,0.05620832559436233,0.031158013687181026
0.002950976888141505,0.022190152994371173,0.01425257254266587
-0.011661577477575272,-0.003431615602768252,-0.0017461919910906688
-0.015993156093127032,-0.008285861763546872,-0.01316360116360658
-0.008734322268598892,3.8449474540820746e-05,-0.01845014944432613
0.010224043720168718,0.013976383995588341,-0.011738823632414467
0.03206222155958246,0.031369965040992126,0.00640430304424737
0.0492746719617969,0.05029191269939354,0.027454551552230488
0.05809913661122326,0.06112505215126978,0.04021518533327768
0.0471254878294366,0.04965269018515239,0.034991001052239935
0.010636800937641888,0.012721969888694064,0.00986790364196018
-0.03410228596778318,-0.03239848848495908,-0.023770278340258966
-0.0621602880842926,-0.06022148949956049,-0.045779972997193
-0.06237852753261175,-0.059567848432366545,-0.046015037303685974
-0.042390640668077725,-0.040520939981707464,-0.03340791490647092
-0.0213352782411131,-0.022324726155264048,-0.021103018046175415
-0.016961000603064116,-0.020306128741870957,-0.014722701155651819
-0.02885505053645761,-0.03272530901855606,-0.013317112547438725
-0.03804008470919387,-0.03817071585039979,-0.010827349790911097
-0.035492376366859486,-0.025991844789594824,-0.005780663047429274
-0.02650660429911027,-0.009569112976346763,-0.0021827399888633358
-0.013008968854154352,0.0014466614795983807,0.0023458458341849915
0.0005028995983006423,0.006776719887819657,0.006605786735527063
0.007040594376208993,0.006925711601665337,0.004490207977090291
0.009317875576060957,0.006795944625090067,0.0035499507511183924
0.01241118253919321,0.006488348828763501,0.011139169789320145
0.013725363564941116,0.0005479050122066956,0.018195896214854138
0.010902483744291284,-0.006209590138342551,0.016775915914406782
0.007628892019504084,-0.005469437753431752,0.0077139470375653715
0.00524723543132557,-0.0013889872677871494,-0.0055599904331705636
-0.00229151420735104,-0.005565561439783803,-0.016603215607595617
-0.02004481889453032,-0.02411262672141221,-0.02508471956432172
-0.042457061369740076,-0.04946044281244829,-0.037418399809085755
-0.059735932473616866,-0.06673386924991201,-0.05051004251152102
-0.06744547820228237,-0.06898316351055002,-0.05443897449147502
-0.06061363460272647,-0.05638134822979602,-0.04375074439216181
-0.0391882139807859,-0.03498902183214688,-0.021971316810975996
-0.0181186185463222,-0.016763970899797847,-0.0020148369127969256
-0.009901428883523024,-0.006598891068068361,0.004130415671233697
-0.011642600134243173,-0.002999059014184018,-0.0047684473602860565
-0.009422250964387506,-0.001134259498954212,-0.01298610362605066
0.005982607485444434,0.007550515562953674,-0.005003511666779032
0.023313666283484493,0.019253574376315988,0.008500692879705124
0.02990354875555612,0.023968441191884134,0.012276113475826982
0.027616778884038105,0.024698981208159727,0.012405638705935355
0.01563733090565016,0.023829061846673657,0.014693917771183292
-0.00588297643295091,0.015206767180894606,0.010889713790592906
-0.019375867542073804,0.0024799911078829382,0.003199752906751308
-0.013639965519946668,-0.002552083872646977,0.005401681818593662
-0.0016462845340596498,4.8061843176025934e-05,0.013873591313830258
0.004374277638048984,0.0016052655620792662,0.013964738697980594
0.004801267863021227,0.0012303831853062639,0.008543867956407915
0.0030980512989652776,0.005224322353234019,0.010592285484418122
0.0034443878147760974,0.012428792645320307,0.017754550986336718
0.005935164127114184,0.01221251435102819,0.015159249153424486
0.008188723647801025,0.003700761924553997,-0.0004221563055384034
0.01601213343645913,-0.0018119314877361777,-0.012549555628277993
0.03049184639885121,0.0018215438563713828,-0.006245994429670469
0.03675911403427714,0.009968026274707779,0.011436598095494929
0.026743821090761517,0.012135615401946548,0.022177597733000442
0.00887665234358964,0.0042006050935846665,0.021472404813521518
-0.008207700991133125,-0.005205097615963609,0.019687834976472814
-0.020097006588693594,-0.007853305174962638,0.02335771649621007
-0.023555627410968765,-0.005464631569114148,0.02716671770754521
-0.019897744483706545,-0.004070838117009396,0.02208165311810535
-0.014522411984889303,-0.008204156630147627,0.005526409817957281
-0.009825519510194626,-0.015384596000645902,-0.013528190700207927
-0.001641540198226625,-0.014034058207399574,-0.018713997135287635
0.014228263163241758,0.0021387520213331543,-0.005775865816684519
0.0344296451402619,0.024804717263146984,0.011331059019110329
0.05149976546748559,0.044759994549832954,0.021189368199580998
0.0621602880842926,0.057900102474158444,0.0224462426547067
0.06337483805754698,0.060163815287749264,0.016584026684616598
0.04964473015677284,0.05175779891626233,0.007541246730754207
0.023740656508456737,0.033763444831158215,-0.0027632049089786406
-0.0046874038030286285,0.005551142886830995,-0.01865643036635058
-0.023071705156000225,-0.020834809016807242,-0.03795568965249827
-0.017653673634685757,-0.02358875263079353,-0.04185583824798375
0.006044283851273758,-0.001052554365554968,-0.01818630175336463
0.022639970595194955,0.019638069121724198,0.013211573471054125
0.019385356213739855,0.016610173001634563,0.024072503877178505
0.0022156048340226412,-0.006022148949956049,0.009440950105677023
-0.020552462828663985,-0.03269166572833284,-0.016281801147697058
-0.040122848139891816,-0.0491192037258985,-0.03460242536191482
-0.0509494225108547,-0.05254120696003155,-0.03912621395421839
-0.05076439341336673,-0.04897501819637043,-0.03535079335809653
-0.035492376366859486,-0.03719025424960887,-0.025353364486027978
-0.009355830262725157,-0.01443777769007819,-0.009172305183970764
0.015020567247356922,0.013341967665664799,0.009268249798865856
0.03310123110701492,0.03834854467015109,0.026111326943699203
0.04985822526925896,0.0591112609221943,0.04282008162767942
0.06638749131151782,0.07777848081176277,0.061663603993075425
0.07783082934077394,0.09146649374829495,0.07766236852683196
0.0852841809344561,0.09456167644883103,0.08466632541417365
0.08761364982847133,0.08273365684321105,0.08086691866432803
0.06970852639463526,0.05388213238464267,0.06660475166017264
0.026715355075763367,0.014019639654446765,0.04219164440011657
-0.023688468814293463,-0.027549048508498066,0.007689960883841599
-0.06681922587232308,-0.06465759762470769,-0.029162365697363118
-0.09984454760600961,-0.09018804871981266,-0.05686157601757609
-0.11641176833493265,-0.09923328760554075,-0.07616083530372378
-0.11367903089511029,-0.09745980559234539,-0.09613170689413711
-0.10242072196334213,-0.09415795696615241,-0.11357923511280954
-0.09276599854313641,-0.09075998465360738,-0.11668304340466576
-0.0861808604068978,-0.08447349556618318,-0.1066232505329154
-0.07573383290257692,-0.07124207013982324,-0.08896464416147376
-0.057036405384625684,-0.0504120673073336,-0.06428289197971143
-0.040625747738192455,-0.0348352239339836,-0.041807865940536204
-0.035705871479345605,-0.03578204224455131,-0.03279866660188709
-0.03653138591429194,-0.04255876213237096,-0.0338540573657331
-0.034676350603579195,-0.03935784337684764,-0.0353124155121385
-0.026288364850791123,-0.026414789009543853,-0.03246765768049903
-0.008824464649426366,-0.010818720898923438,-0.022431850962472435
0.012985247174989226,0.004325565885842334,-0.0073637491931982865
0.028935704245619035,0.019056520819294282,0.0060157273539222485
0.03630365779430675,0.03204763702977409,0.014554798079585408
0.0395108288174316,0.03955489693386934,0.019040208825930945
0.04454931347210407,0.042779846610980686,0.024533038028674944
0.05222090451410538,0.04376511439608922,0.034122702287439355
0.05535216616390183,0.04141969644909915,0.04247468101405709
0.04788932589855362,0.038521567305584786,0.045252277615269995
0.03395046722112638,0.03723350990846729,0.04533383053793082
0.02193306455607424,0.03269166572833284,0.04135692625052927
0.010456516175986941,0.0185374529129932,0.024993572180171383
-0.005897209440449985,-0.0037680485050004334,-0.0026048962944017393
-0.020955731374471105,-0.02073868533045519,-0.02479208848889169
-0.020542974156997938,-0.019243962007680783,-0.024763305104423164
-0.0045782840788690556,-0.00693051778598294,-0.01044357133133073
0.0065946268079046496,-0.0018984428054530243,-0.005123442435397896
0.0031739606722936764,-0.002244488076320411,-0.006893620580212338
-0.0015419091457331015,0.00459471220762808,9.594461489509169e-06
-0.0015988411757294006,0.011554067099516634,0.008961227031201564
-0.006253034627926855,0.005829901577251946,0.008428734418533805
-0.014944657874028522,-0.0034364217870858542,0.005703907355513201
-0.015082243613186245,-0.0006440286985587475,0.012635905781683575
-0.003472853829774247,0.010290040623987152,0.028538725700545022
0.005631526633800589,0.010549574577137693,0.03958195087497007
0.00021823944831914668,-0.005229128537551622,0.036694017966627815
-0.010556147228480464,-0.019782254651252273,0.029421416157579865
-0.011875072590061394,-0.02129139652697949,0.028677845392142905
-0.004122827838898662,-0.0155672310047148,0.029454996772793146
0.0014043234065753787,-0.012962279104574195,0.01979817128360217
-0.0017506599223861983,-0.014452196243030999,0.0030990110611114614
-0.0071639471078676405,-0.006988191997794171,-0.0025473295254646844
-0.0074343742503500615,0.010241978780811126,0.001650247376195577
-0.0064190863820827275,0.015153899153400976,-0.005583976586894336
-0.00723036780952999,0.006776719887819657,-0.022949951882905932
-0.0082598886852964,0.010174692200364691,-0.02823170293288073
-0.010086457981010996,0.024934484239722256,-0.019942088205944807
-0.007026361368709918,0.03096624555831351,-0.013230762394033143
0.00455456239970393,0.026563780723389534,-0.008783729493645644
0.016918301580566893,0.022661159057496227,0.0016646390684298407
0.0261318017683013,0.024766267788606165,0.017010980220899755
0.03451504318525635,0.02974547474164245,0.029934719847268604
0.042784420542218794,0.03235042664178306,0.034799111822449755
0.044003714851306205,0.028529510109288996,0.029344660465663794
0.03202426687291826,0.01788381184579925,0.01823907129155693
0.021994740921903566,0.010958100244133913,0.013029278702753451
0.030311561637196262,0.017287844990416527,0.020839170355213914
0.04323038811052314,0.02913508933330692,0.03379169336605129
0.04117609069482335,0.03290794402262496,0.03694827119609981
0.02389721959094656,0.021281784158344284,0.025569239869541936
-0.002865578843147056,-0.005195485247328403,0.00520019812731397
-0.032228273313738336,-0.03586855356226815,-0.019462365131469348
-0.051945733035789934,-0.05668413784180499,-0.04133773732755025
-0.05113445160834267,-0.05851529406681157,-0.04867750036702477
-0.033528221331987164,-0.04311147332889526,-0.04067571948477412
-0.013127577249979976,-0.020431089534128623,-0.027339418014356374
0.0035108085164384465,0.0005286802749362852,-0.013187587317330352
0.013416981735794496,0.010688953922348168,-0.0008299209188425431
0.017364269148871236,0.010280428255351947,0.005756676893705502
0.022711135632690328,0.011558873283834236,0.009623244873977695
0.024480772898408627,0.014538707560747845,0.014070277774365196
0.012610444644180258,0.011967398950830457,0.016982196836431228
-0.0028418571639819315,0.008189738077194818,0.016967805144196966
-0.007586192997006859,0.006296101456059397,0.014981751615868566
-0.005669481320464789,0.002970221908278403,0.010808160867932078
-0.0017743816015513229,0.0004950369847130671,0.005588773817639091
0.012226153441705238,0.006118272636308101,0.006701731350422155
0.034908823059397416,0.02140674495060195,0.019217706363486863
0.05182712463996431,0.03904063521188587,0.03817636226675698
0.06042386116940548,0.05219516168916417,0.056204355405544706
0.0667290834914956,0.05903916815743026,0.06887863903318632
0.06923409281133278,0.05896707539266622,0.07214075593961944
0.06526308371909091,0.05327174697630715,0.06687819381262367
0.058061181924559065,0.045879835495834353,0.06092483045838322
0.050745416070034625,0.04108806973118457,0.05685677878683133
0.04162205826312769,0.039761562859526256,0.04842324713755278
0.025790209588323506,0.03524855578529742,0.03142186137814253
-0.0065471834495744,0.010910038400957887,0.003262116906433117
-0.060860340066043773,-0.04476960691846816,-0.04295440408853255
-0.11686722457490305,-0.10905232216640284,-0.09774837365511942
-0.14147135020497031,-0.14052802326238223,-0.1272513427353601
-0.12999005748905,-0.1315981328002766,-0.11858754401033332
-0.10571329103146143,-0.11077774233642218,-0.09680331919840275
-0.07928734044151259,-0.09147129993261256,-0.07605529622733918
-0.04443544941211147,-0.06087993675107205,-0.04617334591826287
-0.005920931119615109,-0.021733565484198927,-0.011129575327830635
0.024077504352601507,0.007430360955013609,0.012314491321785017
0.04081077683568043,0.024732624498382944,0.02192334450352845
0.04397999317214108,0.040424816295355416,0.024648171566549054
0.033651574063645814,0.053925388043501096,0.02237428419353538
0.0163489812806039,0.05441081265957896,0.01570613345832651
0.005195047737162296,0.040535358534660275,0.00791063349810031
0.0012999480182488302,0.02302162288131642,0.0008491098418215614
-0.00461149442970023,0.011270502224778082,-0.0026336796788702667
-0.010480237855152065,0.005858738683157561,-0.0015159249153424486
-0.008497105476947646,0.0010813914714605836,-0.001189713224699137
-0.002690038417325134,-0.00681997554667808,-0.004427843977408481
-0.004070640144735388,-0.018696056995474088,-0.011345450711344593
-0.014356360230733431,-0.033835537595922255,-0.02297873526737446
-0.022843977036015026,-0.045817355099705526,-0.03391162413467016
-0.021909342876909117,-0.045783711809482305,-0.03894391918591771
-0.018393790024637646,-0.03828606427402226,-0.044225670235892516
-0.020808656963647334,-0.03765164794409872,-0.052112317580269046
-0.026634701366601943,-0.04236170857534926,-0.05380574003316742
-0.030914092287990427,-0.03940109903570606,-0.04769406806435008
-0.033248305517838694,-0.02753943613986286,-0.0414384791731901
-0.035587263083519984,-0.017826137633988017,-0.03771103088451579
-0.03674013669094504,-0.017374356308133374,-0.031891989991128473
-0.03173011805127072,-0.017850168555576033,-0.021813008196399093
-0.022583038565198655,-0.010352521020115987,-0.012156182707208116
-0.01350712411662197,0.00024992158451533485,-0.005603165509873355
-0.0034206661356109727,0.009400896525230672,0.001026607379377481
0.01019557770517057,0.02213247878255994,0.012333680244764037
0.035259903911041265,0.04448604204372961,0.03325440352263878
0.06744547820228237,0.0683968090238025,0.057298124015348756
0.080886181617242,0.07500050627618847,0.06635529566144541
0.06771116100893176,0.06013978436616125,0.05885242677664924
0.042798653549717874,0.032360039010418264,0.04470059607962322
0.012909337801660828,-0.0024992158451533487,0.021856183273101886
-0.015850826018136283,-0.032124535978855735,-0.006178833199243904
-0.02979917336722957,-0.04085256669962204,-0.021150990353622962
-0.025116513900033968,-0.030865315687643856,-0.015648566689389454
-0.011044813819282032,-0.015927694828534993,0.00020628092202444712
0.003695837613926419,-0.0017782881975129596,0.014914590385442003
0.013986302035757486,0.00904523888572808,0.022436648193217192
0.01649131135559465,0.013846617019013071,0.025895451560185245
0.016785460177242195,0.018018385006692124,0.03542754905001261
0.02189510986941004,0.022055579833478303,0.04542977515282591
0.02609859141747013,0.014601187956876678,0.037941297960264006
0.022483407512705132,-0.002528052951058964,0.015845253149924392
0.016135486168117778,-0.010828333267558643,-0.0018757172211990424
0.012520302263352785,-0.002994252829866416,-0.007099901502236785
0.008444917782784372,0.010549574577137693,-0.0052145898195482335
0.0015229318024010017,0.016711102872304217,-0.005502423664233508
-0.0046209831013662795,0.01227018856283942,-0.009637636566211959
-0.009668956427704803,0.004844633792143414,-0.012434422090403883
-0.020723258918652884,-0.0021195272840627438,-0.01638734022408166
-0.03809701673919017,-0.014072507681940393,-0.024883235873042028
-0.050645785017541106,-0.030788416738562214,-0.03206469029793964
-0.048676885646835755,-0.04141489026478155,-0.03287062506305841
-0.034557742207753574,-0.03842063743491513,-0.02878818169927226
-0.02254982821436748,-0.026477269405672688,-0.024849655257828746
-0.02267318094602613,-0.01586040824808856,-0.024312365414416233
-0.028926215573952984,-0.011578098021104648,-0.02525262264038813
-0.029073289984776755,-0.010068956145377433,-0.024178042953563104
-0.017283615439709812,-0.004253473121078295,-0.017284422373350768
0.003259358717288125,0.011741508287903135,-0.00271043537078634
0.018393790024637646,0.027068430076737805,0.008174481189061812
0.01766790664218483,0.022896662089058755,0.0035259645973946194
0.01513443130734952,0.012135615401946548,-0.0017270030681116504
0.02563839084166671,0.018527840544357996,0.011038427943680299
0.03846233059833309,0.033345306795526795,0.030788626919834923
0.040734867462352026,0.04010760813039364,0.040781258561158724
0.03939222042160597,0.04234729002239645,0.046854552684018023
0.0444212164046124,0.04622107458238414,0.059049113237184175
0.05087825747335933,0.04494743573821945,0.06911850057042405
0.052961020904057264,0.03622901738608835,0.0675929811935921
0.053862444712332,0.03285507599513133,0.06267581968021864
0.05545179721639536,0.04070357498577636,0.06287730337149834
0.05824621102204704,0.04934990057314343,0.06374080490555416
0.06094573811103822,0.04564913864858943,0.05773467201312142
0.05865422390368718,0.028851524458568367,0.04049342471647344
0.04792253624938479,0.011357013542494928,0.013705688237763847
0.028456526326483517,0.0011150347616838017,-0.010170129178879718
0.002082763430697943,-0.00435440299174795,-0.020244313742864346
-0.02591830665581518,-0.010174692200364691,-0.02157794388990612
-0.04669375326863134,-0.021940231409855838,-0.02390939803185685
-0.058810786986177005,-0.04071318735441157,-0.030740654612387376
-0.06949503128214914,-0.052305703928469026,-0.03916938903092118
-0.07951032422566476,-0.0422511663360444,-0.04319426562577028
-0.0814412689097059,-0.02638595190363824,-0.046322060071350264
-0.07027784669459826,-0.030274155016578735,-0.05623313879001324
-0.04984399226175989,-0.044024648349239755,-0.0641917445955611
-0.033200862159508446,-0.04141008408046395,-0.056386650173845386
-0.032161852612075985,-0.02555448201669299,-0.03894391918591771
-0.0380068743583627,-0.014740567302087153,-0.026576658325940396
-0.030544034093014483,-0.008901053356200003,-0.01944317620849033
-0.009265687881897683,0.00114867805190702,-0.00806894211267721
0.011490781387586375,0.013567858328592121,0.009148319030246993
0.02426253345008948,0.020161943212342878,0.023271366342804488
0.032740661583705026,0.022271858127770418,0.031690506299848785
0.044966815025410264,0.03024531791067312,0.042230022246074604
0.06008226898942769,0.0468891342025309,0.05661212001884885
0.07213762634114403,0.06527759540167842,0.07133002394375591
0.07919245372485209,0.0776535200195051,0.0839659297254395
0.07461416964598304,0.07492841351142443,0.08502611772003026
0.050280471158398184,0.051181056798150014,0.06334743198448428
0.009740121465200176,0.01643715036620087,0.021947330657252222
-0.03367055140697791,-0.012582590543483589,-0.02457141587463298
-0.06225991913678613,-0.033508717062325284,-0.06160603722413837
-0.06382080562585132,-0.04860013581959743,-0.07892883744344717
-0.04714920950860173,-0.05285360894067572,-0.07399248700709471
-0.03134108251296267,-0.04369782781564278,-0.05243852927091236
-0.02225093505688691,-0.024747043051335755,-0.02627443278902086
-0.015841337346470235,-0.007425554770696007,-0.010290059947498584
-0.00946494998688473,-0.0023694488685780785,-0.009560880874295886
-0.0042414362347242855,-0.003830528901129267,-0.012136993784229099
-0.002813391148983782,0.00039410711404341267,-0.0033484670598387
-0.004696892474694679,0.00809842057516037,0.010093373486963646
-0.006779655905392622,0.005858738683157561,0.007123887655960557
-0.006243545956260805,-0.006224008691295358,-0.011024036251446035
-0.002092252102363993,-0.013615920171768147,-0.0214004463523502
0.005408542849648417,-0.012198095798075383,-0.015096885153742677
0.013184509279976274,-0.007555321747271276,-0.001084174148314536
0.01277649639833613,-0.003407584681180239,0.012314491321785017
0.004492886033874607,-0.0031624692809825066,0.018594066366668768
0.0036483942555961693,-0.006180753032436935,0.0135521768539317
0.013042179204985526,-0.010419807600562422,0.002230712296310882
0.01308487822748275,-0.020604112169562316,-0.010467557485054502
-0.010029525951014697,-0.04215984883400995,-0.029239121389279192
-0.045028491391239586,-0.06881494705943393,-0.05345074495805558
-0.06870272719803398,-0.08186854366604257,-0.06835574088200808
-0.07048185313541833,-0.07347213966319084,-0.06533348551281268
-0.05974542114528291,-0.061365361367149915,-0.05311493880592276
-0.04891884677432003,-0.05901994342015985,-0.04128976502010271
-0.035369023635200836,-0.051930821551696024,-0.028428389393415666
-0.013184509279976274,-0.025549675832375385,-0.011935510092949405
0.009341597255226083,0.009362447050689851,0.003113402753345725
0.021909342876909117,0.035791654613186515,0.012832592242218513
0.023987361971774035,0.046216268398066536,0.014885807000973476
0.017454411529698708,0.0381755220347174,0.004000890441125323
0.0022583038565198656,0.016091105095333482,-0.015922008841840467
-0.01669531779641472,-0.007689894908164149,-0.03283704444784513
-0.02617924512663155,-0.018225050932349034,-0.03800366195994582
-0.01862151814462284,-0.011558873283834236,-0.0279390718574507
-0.001764892929885273,0.0007641833064988123,-0.007397329808411569
0.011040069483449006,0.009766166533368469,0.011705243017201186
0.012752774719171005,0.015057775467048925,0.020407419588186003
0.008871908007756614,0.016336220495531215,0.02232151465534308
0.00955034803187918,0.01646118128778888,0.02695563955477601
0.016159207847282902,0.021373101660378733,0.0348470841298973
0.02435742016674998,0.028894780117426792,0.04011444348763783
0.03208119890291456,0.031216167142828845,0.041160239789994335
0.039880887012407544,0.028087341152069557,0.04156320717255372
0.04632369507365539,0.025155568718331973,0.043736352699927546
0.04695469173944771,0.023901154611437696,0.044489517926854016
0.04030313290154676,0.02160379850762366,0.041165037020739086
0.02891198256645391,0.014192662289880458,0.03649253427534812
0.01855035310712747,0.000283564874738553,0.03297136690869826
0.014588832686551652,-0.013774524254249033,0.029296688158216247
0.014275706521572007,-0.02010426900053165,0.024379526644842796
0.010347396451827367,-0.019373728984256055,0.017375569757501104
-0.0005645759641299664,-0.0168649007704675,0.006370722429034088
-0.012079079030881465,-0.008612682297143848,-0.001856528298220024
-0.014697952410711226,0.00952585731748834,0.0033436698290939455
-0.011002114796784807,0.02698672494333856,0.01645929868525298
-0.006699002196231198,0.033744220093887806,0.01969742943796232
-0.0009109124799407862,0.02809214733638716,0.003089416599621952
0.002234582177354741,0.013125689371372682,-0.024964788795702856
-0.0047965235271882015,-0.0006776719887819656,-0.043323790855878654
-0.019489731602066403,-0.006719045676008425,-0.04026795487146998
-0.028717464797299887,-0.00839640400285173,-0.026284027250510367
-0.02166263741359182,-0.006459511722857886,-0.012765431011791948
-0.0005645759641299664,0.0043640153603831545,0.0026960436785520765
0.02426253345008948,0.023771387634862428,0.019519931900406403
0.040972084254003276,0.041688842770884894,0.028442781085649932
0.04230524262308328,0.0468891342025309,0.024187637415052615
0.03580550253183913,0.03771893452454515,0.011436598095494929
0.03067213116050616,0.02062333690683273,-0.0043654799777266716
0.027085413270739312,0.0054550192004789435,-0.01771617314037868
0.02927729642559683,0.006224008691295358,-0.015490258074812554
0.039311566712444554,0.023694488685780786,0.004058457210062379
0.04727256224026038,0.03652700081377971,0.021664294043311702
0.03785031127587287,0.024785492525876574,0.018853116826885518
0.010707965975137262,-0.003037508488724839,-0.0004461424592621763
-0.009322619911893983,-0.017114822354982837,-0.013504204546484155
-0.008093836931140526,-0.008535783348062206,-0.00853907072566316
0.002737481775655383,0.006901680680077324,0.008587043033110706
0.012335273165864812,0.019109388846787912,0.027737588166171008
0.02062362786615936,0.02807292259911675,0.04121300932818663
0.030045878830546865,0.03722870372414969,0.05157982496760129
0.03784556694003985,0.04694680841434213,0.062239271682445974
0.044283630665454675,0.055506622683992354,0.06877309995680173
0.05706487139962383,0.06688766714807529,0.07309060762708085
0.07385033157686602,0.08232993736053243,0.079792338977503
0.07600426004505934,0.08882309237361352,0.07814688883205217
0.05150925413915164,0.06642627345358544,0.05566226833138744
0.009645234748539677,0.011928949476289637,0.016382542993336906
-0.036393800175134224,-0.051772217469215134,-0.02938303831162183
-0.07814395550575358,-0.098589258906982,-0.07120049871364754
-0.10529104514232222,-0.12168778073738006,-0.09974881887568207
-0.11671066149241321,-0.1332466540212143,-0.11629446771434063
-0.12369906817445894,-0.14429126558306507,-0.12657013596960495
-0.12769379894586594,-0.14721342564816745,-0.12859456734389138
-0.11562420858665051,-0.1300889909245494,-0.11521029356602609
-0.08397474424454122,-0.09609004306182865,-0.08527077648801273
-0.04722986321776315,-0.05863064249043404,-0.04838966652233949
-0.016875602558069667,-0.02716935994740746,-0.015370327306193688
0.004635216108865354,-0.0037055681088715995,0.008802918416624662
0.013573544818284319,0.01097251879708672,0.02390939803185685
0.014603065694050727,0.018724894101379702,0.032861030601568905
0.022132326661061286,0.026376339535003034,0.037600694577386434
0.036683204660948744,0.035849328824997743,0.03925573918432676
0.040739611798185055,0.03843986217218554,0.03804683703664861
0.02149658565943595,0.02392999171734331,0.028572306315758304
-0.013981557699924462,-0.006017342765638447,0.007493274423306661
-0.04346286056634136,-0.03431134984336492,-0.015950792226308994
-0.047595177076906074,-0.04223674778309159,-0.02729144570690883
-0.02886453920812366,-0.02923121301965897,-0.023132246651206605
-0.008036904901144228,-0.013957159258317932,-0.014123047312557497
0.000716394710786764,-0.010640892079172142,-0.008942038108222545
-0.0006167636582932405,-0.014351266372361345,-0.005723096278492219
-0.002699527088991184,-0.011717477366315123,0.0012664689166152104
0.000782815412449113,0.0016052655620792662,0.013182790086585598
0.0028086468131507574,0.014375297293949357,0.01961107928455674
-0.0037764913230878424,0.01951791451378413,0.012122602091994835
-0.011044813819282032,0.023271544465831757,0.0004557369207516855
-0.017905123433836077,0.0207579100677256,-0.010045401179516099
-0.029006869283114408,0.004306341148571924,-0.024158854030584088
-0.031635231334610214,-0.01145313722884698,-0.03196874568304455
-0.019769647416214873,-0.014817466251168795,-0.02559322602326571
-0.008947817381085013,-0.015874826801041367,-0.01719327498920043
-0.007486561944513336,-0.02177682114305735,-0.01774975375559196
-0.009422250964387506,-0.02518921200855519,-0.022662118038220658
-0.010314186100996194,-0.02090209559725368,-0.02263333465375213
-0.01156194642508175,-0.016744746162527434,-0.021386054660115936
-0.013364794041631222,-0.017499317100391043,-0.022546984500346545
-0.00884818632859149,-0.013563052144274518,-0.013935955313512067
0.004156038189729837,-0.0016100717463968688,0.004672502745390965
0.014285195193238058,0.00843004729307495,0.015072899000018904
0.016847136543071517,0.014485839533254217,0.014454056233945562
0.022839232700182,0.023737744344639208,0.015096885153742677
0.03479495899940482,0.03237445756337107,0.017778537140060488
0.04077282214901623,0.03213414834749094,0.01653605437716905
0.037494486088396006,0.03146608872734418,0.017111722066539603
0.034116518975282256,0.03936264956116524,0.026207271558594293
0.032327904366231855,0.04372666492154839,0.03419945797935543
0.02494571781004507,0.0331626717914579,0.031536994916016636
0.013976813364091437,0.02027248545164774,0.026878883862859936
0.00721139046619789,0.01830675606574828,0.02448986295197215
0.004559306735536955,0.020358996769364587,0.015730119612050283
0.003667371598928269,0.018696056995474088,0.005703907355513201
0.001447022429072603,0.01275080699459968,0.0013768052237445657
-0.007918296505318605,0.0017927067504657673,-0.00801617257448491
-0.0163489812806039,-0.006608503436703566,-0.02263333465375213
-0.008364264073622948,-0.003864172191352485,-0.02739698478329343
0.007420141242850987,0.002105108731109936,-0.02225915065566127
0.010987881789285732,0.0016965830641137154,-0.018023195908042973
0.005375332498817243,0.0007978265967220305,-0.013825619006382711
0.0076383806911701334,0.007526484641365661,-0.001717408606622141
0.01919083844458583,0.017542572759249465,0.013628932545847775
0.0261887337982976,0.02134907073879072,0.016828685452599083
0.021781245809417444,0.02107031204836977,0.007843472267673745
0.01436584890239948,0.027241452712171498,0.00473006951432802
0.013355305369965171,0.035613825793435215,0.012381652552211582
0.015243551031509093,0.031586243335284245,0.01644010976227396
0.015219829352343967,0.016571723527093744,0.011642879017519377
0.019095951727925334,0.006252845797200974,0.009733581181107051
0.028114934146505722,0.009251904811384992,0.016790307606641044
0.028935704245619035,0.014322429266455728,0.021760238658206796
0.011338962640929578,0.0045802936546752715,0.013317112547438725
-0.014697952410711226,-0.016057461805110265,-0.00351637013590511
-0.02924883041059868,-0.028870749195838777,-0.014823443001291665
-0.027702176929032554,-0.024992158451533485,-0.014861820847249702
-0.020443343104504415,-0.011534842362246224,-0.007531652269264697
-0.012079079030881465,-0.0014322429266455728,0.0008970821492691073
-0.0043505559588838585,-0.0012111584480358536,0.005723096278492219
-0.00229151420735104,-0.004488976152640822,0.00864460980204776
-0.0025239866631692615,-0.0010477481812373654,0.013979130390214858
0.003695837613926419,0.009232680074114583,0.019908507590731525
0.014873492836533149,0.019907215443509943,0.02191375004203894
0.021833433503580718,0.025530451095104975,0.018023195908042973
0.022089627638564063,0.024833554369052598,0.010136548563666437
0.020908288016140857,0.022949530116552385,0.003938526441443514
0.019537174960396652,0.023223482622655733,0.0016022750687480311
0.013369538377464246,0.022843794061565125,-0.00048452030522021304
0.00260938470816371,0.019234349639045578,-0.003242927983454099
-0.008734322268598892,0.009549888239076354,-0.0035739369048421654
-0.017857680075505828,-0.005676103679088663,-0.000623639996818096
-0.01923828180291608,-0.014216693211468472,0.004485410746345536
-0.01120612123760488,-0.007074703315511017,0.010899308252082416
-0.0027137600964902584,0.008108032943795576,0.01774975375559196
0.0022061161623565914,0.022968754853822795,0.025933829406143284
0.010707965975137262,0.03406142825884958,0.03247725214198854
0.025140235579199092,0.03746901294002982,0.030040258923653206
0.03806855072419202,0.037464206755712215,0.021889763888315168
0.03572959315851073,0.036493357523556494,0.014214194696707833
0.00958830271854338,0.02157496140171804,-0.0017749753755591962
-0.023351620970148694,-0.008401210187169333,-0.027075570323394874
-0.03432526975193535,-0.028231526681597632,-0.038056431498138116
-0.01778177070217743,-0.021397132581966745,-0.02211043650257388
0.008729577932765867,0.0012688326598470846,0.003717853827184803
0.026672656053266144,0.020825196648172038,0.022681306961199674
0.027521892167377604,0.026510912695895904,0.034194660748610675
0.01213126672504474,0.016288158652355188,0.0373608330401487
-0.00955034803187918,-0.0042775040426663085,0.027713602012447235
-0.02023933666368434,-0.020349384400729382,0.013120426086903787
-0.011115978856777406,-0.019527526882419335,0.0111967365582572
0.008345286730290847,-0.00657966633079795,0.025818695868269174
0.022725368640189404,0.0022541004449556164,0.039572356413480565
0.027251465024895186,-0.0005575173808419009,0.03747116934727806
0.026089102745804078,-0.007814855700421817,0.02392378972409111
0.01477860611987265,-0.016403507075977652,0.008500692879705124
-0.015030055919022971,-0.03326840784644515,-0.010438774100585975
-0.04949765574594907,-0.05630925546503198,-0.0377733948841976
-0.05980235317527921,-0.06742595979164678,-0.06444120059428833
-0.04512337810790009,-0.05629483691207918,-0.07617522699595805
-0.035359534963534785,-0.03950683509069332,-0.07426592915954572
-0.040858220194010676,-0.03601273909179623,-0.06753541442465504
-0.04394203848547688,-0.04038156063649699,-0.055786996330751064
-0.0360854183459876,-0.03722870372414969,-0.034875867514365826
-0.0263215752016223,-0.025919752024830787,-0.006869634426488564
-0.024072760016768485,-0.01990240925919234,0.018709199904542877
-0.027991581414847075,-0.0222382148375472,0.0316041561464432
-0.0324322797545584,-0.020325353479141366,0.02960371092588054
-0.035648939449349305,-0.010737015765524193,0.01728921960409552
-0.032731172912038975,-0.0010429419969197628,0.0042647381320868255
-0.0180237318296617,0.008482915320568577,0.00271043537078634
-0.0016225628548945253,0.01929202385085681,0.008855687954816963
-0.0025951517006646352,0.022430462210251304,-0.0007051929194789239
-0.022051672951899862,0.007113152790051838,-0.03867527426421146
-0.03702954117675956,-0.01866241370525087,-0.08154332819933842
-0.026383251567451624,-0.03063461884039893,-0.09105623676618677
0.001119663256593883,-0.020320547294823764,-0.06342898490714512
0.01866896150295309,-0.005104167745293954,-0.03230934906592212
0.020158682954522916,-0.0013072821343879054,-0.02141004081383971
0.015936224063130732,-0.009218261521161774,-0.026979625708499783
0.004208225883893111,-0.0231658084108445,-0.03698185181131309
-0.012117033717545665,-0.030509658048141264,-0.037039418580250144
-0.017131796693053016,-0.019431403196067284,-0.022158408810021426
-0.0068935199653852195,0.001701389248431318,-0.006284372275628505
0.008667901566936543,0.015764284561736508,0.00037898122883561216
0.018284670300478072,0.01864318896798046,0.002331454141950728
0.02074698059781801,0.02234875707685206,0.006831256580530528
0.02476543304839012,0.036743279108071826,0.01681909099110957
0.03320560649534147,0.052401827614821074,0.027943869088195454
0.03877545676331273,0.053747559223749804,0.03182003152995716
0.03906011691329423,0.043918912294252495,0.028975273698317688
0.04217714555559161,0.039477997984787704,0.028313255855541557
0.046641565574468066,0.041741710798378524,0.02866345369990864
0.04166001294979189,0.039944197863595154,0.02420682633803163
0.03132210516963057,0.033883599439098286,0.02084396758595867
0.027128112293236535,0.029029353278319663,0.022244758963427008
0.02887402787978971,0.02600145715823003,0.022570970654070318
0.026297853522457174,0.021671085088070093,0.016708754683980215
0.006324199665422229,0.007536097010000867,0.001707814145132632
-0.033086998099515846,-0.024578826600219664,-0.02079599527851112
-0.07103219609204922,-0.06174985611255812,-0.04297839024225632
-0.0835714756987341,-0.0778505735765268,-0.05458768864456241
-0.07246972984945577,-0.07066052183739333,-0.04959377143927289
-0.055788645060540126,-0.05880366512586773,-0.03438654997840086
-0.04415078926212998,-0.05292570170543976,-0.023866222955154056
-0.035193483209378915,-0.04951331083994192,-0.021971316810975996
-0.020234592327851318,-0.03969908246339742,-0.018258260214535946
0.0004269902249722435,-0.022267051943452815,-0.0067592981193592095
0.01673327248307892,-0.00511378011392916,0.008879674108540736
0.024030060994271258,0.004676417341027323,0.021136598661388697
0.02688140682991924,0.008021521626078729,0.025127894641024513
0.03080971689966388,0.013567858328592121,0.026979625708499783
0.032218784642072285,0.023434954732630246,0.03331676752232059
0.02810544547483967,0.030576944628587698,0.04084362256084053
0.02785399567568935,0.03344623666619645,0.04655712437784324
0.03520771621687799,0.03522933104802701,0.05204995358058724
0.040967339918170254,0.03711816148484483,0.05838229816366329
0.0409578512465042,0.04033349879332097,0.06318432613916262
0.04156512623313139,0.04594231589196319,0.0627429809106452
0.04470587655459389,0.048335795682129284,0.0561419914058629
0.04323038811052314,0.041775354088601745,0.04586632315059858
0.038860854808307185,0.03487847959284202,0.03616632258470481
0.03737587769257038,0.03517165683621578,0.027871910627024134
0.026625212694935892,0.028385324579760916,0.014986548846613322
-0.0031407503214625023,0.001571622271856048,-0.006409100274992125
-0.033589897697816486,-0.02979834276913608,-0.027315431860632605
-0.0427464658555546,-0.044562940992811245,-0.034194660748610675
-0.03366580707114489,-0.04266449818735822,-0.029421416157579865
-0.02225093505688691,-0.03348468614073727,-0.025895451560185245
-0.014119143439082184,-0.022305501417993635,-0.02550207863911537
-0.007496050616179386,-0.013164138845913503,-0.02258056511555983
-0.0073537205411886375,-0.010217947859223114,-0.01738996144973537
-0.020068540573695445,-0.017542572759249465,-0.01672314637621448
-0.04089143054484185,-0.03578204224455131,-0.026926856170307482
-0.05850240515703038,-0.05605933388051665,-0.04360203023907442
-0.06698527762647895,-0.06822378638836882,-0.054913900335205726
-0.06694257860398173,-0.07076145170806299,-0.056804009248639036
-0.05826044402954611,-0.06473449657378932,-0.05244812373240187
-0.03732843433424013,-0.048643391478455845,-0.040819636407116756
-0.0073537205411886375,-0.02417030093322344,-0.019409595593277047
0.017079608998889738,-0.000543098827889093,0.004394263362195199
0.027849251339856326,0.01267871422983564,0.019553512515619684
0.029618888605574625,0.016206453518955943,0.026164096481891504
0.027379562092386858,0.015543200083126787,0.03070227676642934
0.01987402280454142,0.00822818755173564,0.032151040451345224
0.006053772522939808,-0.006978579629158966,0.025046341718363684
-0.0028039024773177323,-0.017561797496519878,0.013734471622232375
0.006836587935388921,-0.01084275182051145,0.010745796868250269
0.026027426379974752,0.007814855700421817,0.01890108913433306
0.03012653253970829,0.018542259097310804,0.02549248417762586
0.012624677651679333,0.010881201295052271,0.019068992210399472
-0.01020506637683662,-0.005233934721869224,0.0016454501454508225
-0.02854666870731099,-0.019873572153286723,-0.02036424451148321
-0.04358621329800001,-0.03199476900228047,-0.039533978567522526
-0.049938878978420385,-0.03894931770985142,-0.047449409296367595
-0.04191146274894221,-0.03754591188911146,-0.04258501732118645
-0.02425304477842343,-0.02733757639852355,-0.02617369094338101
-0.009749610136866226,-0.014615606509829486,-0.0054640458182754715
-0.007477073272847286,-0.008891440987564798,0.0055455987409363
-0.00853031582777882,-0.007185245554815877,0.007368546423943041
-0.004516607713039731,-0.001879218068182614,0.009340208260037175
-0.005977863149611409,0.0023982859744836943,0.009623244873977695
-0.014745395769041476,0.004176574171996654,0.007003956887341693
-0.013829738953267664,0.012289413300109832,0.007027943041065466
-0.001911967340709046,0.01944101556470249,0.0028015827549366774
0.005057461998004573,0.01184243815857279,-0.013619338084358265
0.006494995755411126,0.0027010755864926577,-0.02509431402581123
0.009000005075248287,0.005964474738144819,-0.018661227597095334
0.009517137681048005,0.009578725344981968,-0.009335411029292421
0.01115867787927463,0.008530977163744603,-0.006394708582757861
0.018778081227112664,0.014317623082138126,-0.0010074184563984628
0.026520837306609344,0.027193390868995474,0.010323640562711865
0.02888351655145576,0.03546002789527193,0.019711821130196587
0.025519782445841088,0.03286949454808413,0.019236895286465883
0.01978862475954697,0.02396363500756653,0.01120633101974671
0.017482877544696858,0.01838365501482992,0.004941147667097222
0.017905123433836077,0.020897289412936077,0.003449208905478546
0.014954146545694573,0.026808896123587264,0.002955094138768824
0.009365318934391208,0.02844299879157215,0.002470573833548611
0.0064333193895818016,0.02262751576727301,0.0020724036817339805
0.007714290064498533,0.013697625305167391,0.0006188427660733414
0.011357939984261677,0.009290354285925813,0.00026864492170625674
0.01256300128585001,0.011006162087309939,0.0012041049169334006
0.009526626352714054,0.015341340341787479,0.0015495055305557307
0.006623092822902799,0.01868163844252128,0.0029742830617478424
0.005659992648798739,0.017523348021979055,0.005454451356785963
0.0049293649305129,0.011597322758375057,0.006538625505100498
0.0033827114489467735,0.004282310226983911,0.004682097206880474
0.0004934109266345925,-0.002383867421530886,0.0004605341514964401
-0.0018645239823787967,-0.006425868432634667,-0.0013432246085312836
-9.963105249352348e-05,-0.0048975018196370425,0.004821216898478357
0.004056407137236313,-0.0016004593777616636,0.015778091919497826
0.006101215881270057,-0.0014130181893751625,0.022758062653115748
0.007358464877021663,0.0013024759500703028,0.025833087560503436
0.009782820487697401,0.009444152184089095,0.02960371092588054
0.011106490185111355,0.013207394504771926,0.03002107000067419
0.009052192769411563,0.009891127325626137,0.022945154652161178
0.004739591497191903,0.011337788805224517,0.01654085160791381
0.0009583558382710354,0.021267365605391476,0.017644214679207362
-0.0017554042582192233,0.025194018192872796,0.015619783304920927
-0.0011528736074250575,0.012274994747157023,-0.0008922849185243526
0.006077494202104933,0.00034604527086738675,-0.019164936825294566
0.015907758048132582,0.012784450284822899,-0.018843522365396007
0.022492896184371183,0.034840030118301196,-0.005209792588803479
0.023830798889284212,0.034426698266987375,0.00027344215245101133
0.019470754258734305,0.011169572354108427,-0.007987389190016382
0.014498690305724178,-0.007968653598585099,-0.01378244392967992
0.01440380358906368,-0.008492527689203782,-0.004581355361240628
0.0148070721348708,-0.0013793748991519444,0.010227695947816773
0.010959415774287582,0.002696269402175055,0.017500297756864725
0.008620458208606293,0.010141048910141472,0.01851251344400794
0.010911972415957333,0.027193390868995474,0.02141004081383971
0.008283610364461524,0.04199643856721146,0.02458101033612249
-0.0021396954606942424,0.03777180255203878,0.018023195908042973
-0.009797053495196476,0.01558645574198521,0.0026528686018492853
-0.013208230959141398,-0.009251904811384992,-0.011801187632096278
-0.017739071679680203,-0.022766895112483483,-0.02204807250289207
-0.016178185190615004,-0.0213154274485675,-0.028236500163625482
-0.003985242099740939,-0.013519796485416095,-0.02838041708596812
0.0039710090922418645,-0.006757495150549246,-0.020191544204672045
-0.004317345608052684,0.0002883710590561556,-0.0037898122883561216
-0.021520307338601073,0.0055943985456894186,0.011662067940498394
-0.033068020756183744,0.0027731683512566964,0.011124778097085881
-0.028314196251492767,-0.005983699475415228,-0.005032295051247559
-0.010845551714294984,-0.011289726962048491,-0.01806157375400101
-0.00016605175415587248,-0.011770345393808751,-0.020546539279783886
-0.003866633703915316,-0.012241351456933806,-0.021918547272783695
-0.008307332043626648,-0.011832825789937584,-0.022618942961517865
-0.006063261194605858,-0.007973459782902703,-0.016425718070039695
-0.0018313136315476221,-0.0007834080437692227,-0.0066153811970165715
-9.488671666049855e-05,0.006666177648514797,-0.0007099901502236785
-0.0025097536556701865,0.008535783348062206,-0.0006524233812866234
-0.003914077062245566,0.004916726556907453,-0.0026912464478073216
0.0031027956347983027,0.0032441744143817505,-0.00242739875684582
0.01386294930409884,0.005853932498839959,0.0012952523010837378
0.018137595889654298,0.00835795452831091,0.007171859963408103
0.016192418198114077,0.009218261521161774,0.014070277774365196
0.015115453964017419,0.010208335490587908,0.019198517440507847
0.017563531253858282,0.01160212894269266,0.01978857682211266
0.019731692729550675,0.010280428255351947,0.016099506379396385
0.01861202947295679,0.005056105902117928,0.010141345794411191
0.018336857994641347,0.0004998431690306697,0.005886202123813875
0.019138650750422558,-0.003239368230064148,0.002964688600258333
0.010902483744291284,-0.011265696040460479,-0.002216320604076618
-0.005109649692167847,-0.020378221506634996,-0.005684718432534182
-0.012676865345842607,-0.022218990100276788,-0.0030990110611114614
-0.008715344925266792,-0.0179751293478337,0.00047972307447545845
-0.006774911569559596,-0.016432344181883267,-0.0005804649201153047
-0.010769642340966586,-0.01818179527349061,-0.0033052919831359088
-0.01176595286590182,-0.015408626922233914,-0.0028687439853632415
-0.008985772067749214,-0.008660744140319874,-0.0021779427581185814
-0.009189778508569285,-0.007060284762558209,-0.005579179356149581
-0.012933059480825952,-0.012289413300109832,-0.008481503956726104
-0.015879292033134432,-0.01727342643746372,-0.006087685815093567
-0.014550877999887453,-0.01786458710852884,-0.0016550446069403316
-0.009977338256851423,-0.016672653397763398,0.003521167366649865
-0.008724833596932841,-0.019763029913981864,0.0074596938080933786
-0.012259363792536414,-0.027241452712171498,0.005037092281992313
-0.013080133891649725,-0.030610587918810918,0.002077200912478735
-0.009479182994383805,-0.027549048508498066,0.006044510738390776
-0.004853455557184501,-0.02303604143426923,0.014833037462781175
0.003069585283967128,-0.016658234844810587,0.029378241080877075
0.014180819804911508,-0.005224322353234019,0.04884540344309118
0.02659200234410472,0.010857170373464259,0.0628293310640508
0.04465368886043062,0.03248980598699353,0.06769372303923193
0.06844178872721761,0.06144706650054916,0.0687011414956304
0.0875282517834769,0.08808774617302033,0.06862438580371433
0.0902894552382974,0.09606120595592303,0.06799115134540672
0.0771191789658202,0.08488682741749701,0.0649928821299351
0.05985454086944249,0.0685506069219658,0.055897332637880416
0.04443544941211147,0.05507406609540812,0.0396635037976309
0.021098061449461854,0.034926541436018047,0.013355490393396762
-0.020130216939524766,-0.00943453981545389,-0.024552226951653964
-0.06295733650424079,-0.06553232317051136,-0.05725974616939072
-0.08230473803131645,-0.09536911541418826,-0.06735311965635436
-0.08304011008543531,-0.09016401779822465,-0.06537666058951548
-0.0817449064030195,-0.07074703315511018,-0.06656637381421461
-0.0784713146782323,-0.05402151172985315,-0.07006835225788546
-0.07091833203205662,-0.044510072965317615,-0.073517561163364
-0.06032423011691195,-0.034104683917708004,-0.07327769962612628
-0.04477704159208927,-0.017244589331558105,-0.06331864860001576
-0.026122313096635253,-0.006512379750351514,-0.05031335605098608
-0.009612024397708504,-0.00885779769734158,-0.043506085624179326
0.0001897734333209971,-0.010991743534357131,-0.036118350277257266
-0.002884556186479156,-0.01043422615351523,-0.024940802641979083
-0.016382191631435075,-0.01764350262991912,-0.020939912200853762
-0.0245709152792361,-0.025626574781457027,-0.025118300179535005
-0.016372702959769024,-0.01920070634882236,-0.024734521719954636
0.0014897214515698274,-0.0007593771221812098,-0.01478506515533363
0.011694787828406447,0.014745373486404756,-0.003545153520373638
0.007140225428702516,0.018561483834581217,0.0023122652189717097
0.0003415921799777948,0.016091105095333482,0.004787636283265075
0.003961520420575814,0.018249081853937046,0.008208061804275094
0.01450817897739023,0.02702036823356178,0.012520772243809465
0.02277755633435268,0.03540715986777831,0.01435811161905047
0.025738021894160232,0.03825722716811664,0.014612364848522463
0.02553401545334016,0.03612328133110109,0.01702537191313402
0.021544029017766197,0.029101446043083703,0.016943818990473192
0.008406963096120173,0.015427851659504326,0.005795054739663538
-0.014688463739045176,-0.004676417341027323,-0.015696538996837
-0.040682679768188755,-0.028404549317031326,-0.0414384791731901
-0.05881553132201003,-0.04673533630436762,-0.06224886614393549
-0.06408648843250073,-0.05246430801094991,-0.06976132949022117
-0.0636452652000294,-0.053315002635165566,-0.06668150735208872
-0.06094573811103822,-0.05591514835098857,-0.057221368323432685
-0.04911810887930708,-0.0533726768469768,-0.04225400839979838
-0.027972604071514973,-0.04218387975559796,-0.026226460481573313
-0.00754823831034266,-0.02860160287405303,-0.012468002705617164
0.0045782840788690556,-0.015990175224663828,0.000623639996818096
0.014195052812410583,0.0007737956751340176,0.017188477758455674
0.028973658932283233,0.020421477165493418,0.03534599612735178
0.04092938523150605,0.029014934725366856,0.04330939916364439
0.03927361202578035,0.021320233632885103,0.03754792503919413
0.02635004121662045,0.007843692806327433,0.02883135677597505
0.013089622563315775,-0.000874725545803672,0.024312365414416233
0.006485507083745076,-0.003167275465300109,0.02269569865343394
0.003989986435573964,-0.002364642684260476,0.021021465123514587
0.0025239866631692615,0.000461393694489849,0.019164936825294566
0.0022725368640189405,0.0035758011322963293,0.01853170236698696
0.0028039024773177323,0.0031624692809825066,0.015710930689071263
0.003349501098115599,0.0009083688360268902,0.007051929194789239
0.0005455986207978667,0.0007161214633227864,-0.003358061521328209
-0.005531895581307066,0.00025953395315054005,-0.011983482400396952
-0.005954141470446284,-0.0031961125712057247,-0.019251286978700148
0.0006215079941262656,-0.004666804972392118,-0.020685658971381766
0.0030411192689689787,-0.0009275935732973005,-0.01661760729982988
-0.0014659997724047026,0.004248666936760692,-0.014602770387032955
-0.0061771252545984555,0.005844320130204753,-0.014166222389260288
-0.010432794496821817,-1.441855295280778e-05,-0.013902374698298785
-0.012591467300848157,-0.0062143963226601534,-0.012942928549347869
-0.009445972643552632,-0.0033547166536866103,-0.005382492895614643
-0.007073804727040167,0.0017686758288777543,0.004974728282310504
-0.009270432217730709,0.00017782881975129594,0.007234223963089913
-0.010788619684298685,-0.007276563056850326,0.001535113838321467
-0.010413817153489716,-0.016389088523024842,-0.003890554133995968
-0.010029525951014697,-0.021502868636954,-0.004029673825593851
-0.006736956882895397,-0.017283038806098924,0.00201963414354168
-0.0015466534815661264,-0.006002924212685639,0.010908902713571925
0.0025809186931655607,0.0026049519001406056,0.017855292831976562
0.012031635672551217,0.007170827001863069,0.025099111256555985
0.027270442368227284,0.016225678256226356,0.03405074382626804
0.03414972932611343,0.026736803358823228,0.0348998536680896
0.028299963243993694,0.029433072760998283,0.024101287261647033
0.019911977491205622,0.026717578621552815,0.014751484540120346
0.01727412676804376,0.024708593576794932,0.01731800298856405
0.02273011297602243,0.025544869648057782,0.027296242937653585
0.02832368492315882,0.02568424899326826,0.03345588721391847
0.024760688712557096,0.02118085428767463,0.03190158445261799
0.01624460589227735,0.016422731813248062,0.027109150938608155
0.009564581039378255,0.013875454124918687,0.021697874658524983
0.005731157686294112,0.009621981003840391,0.016372948531847398
0.005455986207978667,0.00489269563531944,0.013010089779774433
0.00687454262205312,0.0037728546893180358,0.011522948248900511
0.004464420018876457,0.0020618530722515127,0.007996983651505892
-0.0033922001206128233,-0.00580106447134633,-0.0011849159939543823
-0.012169221411708939,-0.013168945030231105,-0.01147017871070821
-0.015831848674804184,-0.010520737471232076,-0.013940752544256823
-0.012154988404209865,-0.0012399955539414691,-0.009225074722163065
-0.009085403120242736,0.001749451091607344,-0.007905836267355556
-0.017307337118874937,-0.008607876112826245,-0.016056331302693592
-0.032270972336235555,-0.024549989494314046,-0.028260486317349256
-0.04157935924063046,-0.03464778274559709,-0.03811399826707517
-0.04324936545385524,-0.03874745796851211,-0.04516592746186441
-0.03832948919500839,-0.03831970756424548,-0.04743022037338857
-0.026231432820794823,-0.02837571221112571,-0.03998491825752946
-0.013791784266603465,-0.013183363583183914,-0.025977004482846074
-0.006409597710416677,-0.002994252829866416,-0.01558140545896289
0.0004791779191355177,0.004349596807430347,-0.009253858106631593
0.008629946880272344,0.013279487269535966,0.00013911969159788293
0.014299428200737131,0.019618844384453785,0.012679080858386366
0.018113874210489173,0.02276208892816588,0.02417324572281835
0.024632591645065424,0.02857757195246502,0.032673938602523475
0.03693939879593209,0.039636602067268586,0.04049342471647344
0.05310335097904802,0.053641823168762544,0.05157023050611178
0.06590831339238229,0.0658110818609323,0.0628389255255403
0.07020668165710288,0.07164578962250186,0.06808229872955707
0.07271169097694004,0.07296268412552497,0.06907532549372127
0.08482872469448571,0.07819181266307659,0.07360870854751435
0.10448925238654101,0.09109161137152195,0.08351499003543256
0.11606543181912184,0.1026841279455794,0.09141123184129861
0.11021092140116907,0.10285715058101311,0.09306147921749418
0.09037959761912487,0.08793394827485705,0.08757824447623969
0.06162417813516079,0.058890176443584574,0.07060564210129797
0.03229469401540068,0.02674160954314083,0.04484931023271061
0.009929894898521174,0.0014947233227744065,0.020546539279783886
-0.009275176553563734,-0.0205704688793391,0.0029359052157898057
-0.029746985673066297,-0.042851939375744726,-0.009426558413442759
-0.05335954511403136,-0.06220163743841276,-0.0245378352594197
-0.08143652457387289,-0.07855708267121439,-0.04896053698096529
-0.10611655957726855,-0.09141843190511893,-0.0725677094759026
-0.11510707598085079,-0.09270168311791882,-0.07909194328876883
-0.10419984790072649,-0.07740840461930737,-0.06872033041860942
-0.08604801900357312,-0.060144590550478855,-0.05873249600803038
-0.08112339840889324,-0.06099047899037691,-0.06197542399148447
