channel1,channel2,channel3
0.06894055981251662,0.04197345267080163,0.036833012746128435
0.0492200439887091,0.03357732690146706,0.02384232375415887
0.028303002485704273,0.023365628636712276,0.015436215903794358
0.014823623692277786,0.01893075194829453,0.015730179496775853
0.016544552601246758,0.024226769741259414,0.020927706002469983
0.03230619333832737,0.03697165808855702,0.030228213720842032
0.04068187309270854,0.04577682588255148,0.03733963085318165
0.02915977395969741,0.0384499503180296,0.029521450188780135
0.005554242658989982,0.015227845198741846,0.006623562658880967
-0.021626093757343975,-0.010448512068505245,-0.01785672463749307
-0.04597022115632134,-0.028546827615737545,-0.03645774007423716
-0.06557994756538837,-0.04363832547292609,-0.05103082883268159
-0.07897808078800517,-0.055148911570372806,-0.05714151883997782
-0.07190971612756179,-0.047958383347404224,-0.04431344800582781
-0.03446289394527561,-0.018127020250717205,-0.015123488677218298
0.015473588258755337,0.018973809003521885,0.013522325277148866
0.048245097138992776,0.04627915819353731,0.02832683218325958
0.05453054993527,0.05806961514996184,0.029896722860671406
0.04890983362743572,0.05664873232745907,0.025656141668300023
0.04753604488465363,0.045482602671831206,0.021609451356405796
0.05518051450174755,0.03554359909018302,0.02678195968397384
0.0691252088370841,0.04052386514481395,0.0475845747958134
0.08499025302792251,0.058636533043788706,0.07213991662656569
0.09693335193694752,0.07440976760874374,0.08130282436524428
0.09127570582419973,0.07047004705544059,0.07197104392421462
0.05357037500751907,0.0341370686194227,0.05004886534123276
-0.009298924877218602,-0.026759959823802238,0.016343124860864935
-0.07256706665502205,-0.08480804644615039,-0.02770137773010746
-0.11626979778965466,-0.11931110003500563,-0.0724964256648624
-0.12864128243567624,-0.12300683060868708,-0.1005042760770144
-0.10864748605550884,-0.10140654123629643,-0.10032289428560029
-0.07159950576628842,-0.06991030533748495,-0.07626166147283817
-0.038554716329691104,-0.03925368201560693,-0.044044502590972395
-0.02981712448715766,-0.02462145941417685,-0.03017192282005834
-0.05303858581676471,-0.041284539787163926,-0.04959853813496323
-0.08596519987763884,-0.07423753938783431,-0.08243489692544961
-0.10298245398177835,-0.09486186884173821,-0.10187402132941754
-0.10503575113496881,-0.09540725820795139,-0.10350645745214458
-0.09640156274619316,-0.081844285811334,-0.0928987499266846
-0.07282557528941652,-0.0605023387703075,-0.07334078917661777
-0.04509129179938011,-0.04056692220004131,-0.05221919229367062
-0.030570492507393004,-0.028030142953009263,-0.03707068543832624
-0.023221461329607056,-0.0171654126839729,-0.023104287499439366
-0.008612030505827553,-0.003150341207468271,-0.005654108256495178
0.008471697247156263,0.008051669327515717,0.006548508124502712
0.018789884739987387,0.012522426895289596,0.009463125876191598
0.025289530404762898,0.015565125464689475,0.009431853153533992
0.03178179010855571,0.02119124734773076,0.007430398903447203
0.03540091099007844,0.025970580477967364,0.003777744897038814
0.033746455729953766,0.025798352257057934,0.0038027630751648984
0.030186422536292633,0.022942234260309936,0.00942559860900247
0.02741668716778034,0.024262650620615545,0.023260651112727397
0.022711830021800793,0.02678866452728714,0.04268726642763229
0.016130938786215587,0.018787228430870006,0.04855402919819919
0.011935712948042304,0.0038464302669772056,0.03217337707014513
0.010495450556415912,-0.003487621473415899,0.012140070935682678
0.00891485490611823,-0.0012558307774645726,0.004359417538470287
0.004690085224014148,0.00311446032811214,0.003977890322047492
-0.004867348287598934,0.003767492332393718,0.0010007271250433943
-0.019122252984208863,-0.0012414784257221204,-0.005453962831486499
-0.028450721705358263,-0.0073053470369082,-0.010151125774658931
-0.02647128416199481,-0.011230715238468893,-0.010745307505153448
-0.023804952247240312,-0.01891639959655208,-0.011007998375477338
-0.035186718121580154,-0.03587370318025942,-0.019176433533644045
-0.05624409288325627,-0.05543595860522185,-0.036939340003164296
-0.06560210544833647,-0.06360962292254842,-0.05173133782021197
-0.052314761640460165,-0.05235737915646584,-0.0489105382364959
-0.022822619436541285,-0.022920705732696257,-0.025405959887039174
0.010613625932139102,0.012938645095820711,0.006554762669034233
0.037055366250203114,0.039390029357160225,0.03105381359900283
0.05366639250029417,0.05168281862457059,0.043988211690188704
0.06239659838184491,0.05460352220415962,0.04844144739663181
0.06456807091075854,0.05370650022025635,0.04830384741693834
0.05958254724743642,0.052343026804723386,0.04868537463336114
0.04667927341066049,0.04993900788786264,0.04948595633339585
0.034189613388915734,0.046688200218197196,0.04937962907635999
0.031818719913469205,0.04670255256993965,0.05308857398355207
0.031767018186590314,0.047700041016040085,0.058361155023624454
0.022556724841164104,0.039942594899244635,0.053951701128902
0.011093713396014566,0.025403662584140497,0.040197957704086844
0.005953084552055753,0.017194117387457807,0.029940504672392055
0.003670822608401624,0.015816291620182388,0.028020359501215043
0.0012482274060762063,0.011065663193430691,0.025674905301894587
-0.003006086119958674,-0.00038033732117498484,0.01621803397023451
-0.010044906936471245,-0.013491210637905123,0.003558835838435571
-0.01743825388015339,-0.022554720763263723,-0.007987053366752591
-0.022172654870063733,-0.02792250031494087,-0.01827577912110499
-0.020052884068028992,-0.031180484160477532,-0.02404872372369907
-0.015377570765980245,-0.02981701074494457,-0.02331694201351109
-0.016692271820900745,-0.02269106810481702,-0.021327996852487343
-0.016418991264540866,-0.012156441925857063,-0.019995778867273325
-0.007622311734145827,-0.004298529346864452,-0.018063124607033267
0.0011743677962492117,-0.0025260139066715977,-0.018138179141411522
0.010273871726934928,0.002770003886293286,-0.01569890677411825
0.028044493851309794,0.018550414627119545,-0.004309381182218117
0.04715197491355325,0.03461069622692362,0.008731344166003616
0.055291303916488045,0.04332974991046337,0.016199270336639947
0.05213011261589268,0.048288487437480626,0.02212857855252206
0.041974416264680944,0.04937208999403577,0.03196697710060493
0.02939612471114379,0.04394690103538882,0.04423213892691803
0.021515304342603483,0.037954794182914996,0.052844646746822745
0.029351808945247596,0.044277005125465216,0.058767700418173335
0.0598484418428136,0.0692357448055897,0.06834340809593231
0.09649758023896825,0.1003803480867111,0.07870718838466297
0.11339665896738457,0.11608182089295387,0.08462398751148204
0.10573741742832525,0.10805885626892306,0.08781380522255786
0.08137113214639978,0.08632221955497911,0.08658791449437969
0.04899107919824542,0.06493721545872524,0.07761889763617827
0.017120657557897313,0.04523143651633829,0.06148217274485354
-0.011064169552083768,0.020796557674813324,0.03790879440555008
-0.029972229667794347,-0.0010548978530702411,0.008975271402732942
-0.03372429784700567,-0.008740582211153427,-0.018094397329690873
-0.027291125831074448,-0.006049516259443628,-0.0340810131522591
-0.013937308374353852,-4.305705522735678e-05,-0.031372795370110416
0.006691680650325697,0.007125942640127547,-0.011921161877079435
0.01943984930646494,0.008812343969865686,0.007786907941743912
0.009993205209592348,0.0009759599184867537,0.013265888951356497
-0.00864157434975835,-0.009522785381117074,0.00829352604879713
-0.019609726409067028,-0.01867240961693039,-0.000581672641431473
-0.02580654767355186,-0.02740581565221259,-0.014748216005327025
-0.03346578921261118,-0.035758884366319806,-0.03232974068343316
-0.03896094418373957,-0.045418017088990174,-0.045783265970735294
-0.035349209263199545,-0.04869035328626929,-0.046377447701229806
-0.023590759378742027,-0.034581991523438715,-0.03193570437794732
-0.011920941026076904,-0.01012558415430007,-0.012909379913059788
-0.00025112267341178114,0.009888770350549607,-0.0013322179852140188
0.017194517167724306,0.018471476692536057,0.00010007271250433944
0.034396420296431314,0.017251526794427617,-0.001982690616492225
0.03235789506520627,0.007183352047097356,-0.004678399309577868
0.00039884189306577003,-0.018306424647497856,-0.01992697887742659
-0.0439169240031309,-0.055127383042759125,-0.052700792222597756
-0.07351985562179027,-0.08117690145530998,-0.08601249639747975
-0.07961327343251731,-0.08131324879686327,-0.10271213029664139
-0.063918106344281,-0.06084679521212635,-0.09840900365895479
-0.031316474566645644,-0.03393613569502837,-0.07668697050098161
0.0009454030057855289,-0.01080732086206655,-0.046020938662933095
0.017652446748651674,0.006458558284103516,-0.015479997715515007
0.02238684773856202,0.017789739984769574,0.007886980654248251
0.024920232355627927,0.022698244280688246,0.021765814969693827
0.030629580195254597,0.02601363753319472,0.03025948644349964
0.03887969861292988,0.030735561256461513,0.03633890372813826
0.042661310636071995,0.03299605665589774,0.03809643074149572
0.03870982151032779,0.032845356962602,0.03521308571246444
0.03199598297705399,0.035199142648364164,0.032454831574063585
0.02235730389463122,0.035758884366319806,0.031266468113074555
0.0003619120881522728,0.022353787838869394,0.025199559917498972
-0.02686274009407788,-0.0003731611453037587,0.014541816035786824
-0.037609313323905574,-0.01553642076120457,0.007530471615951543
-0.03537136714614764,-0.023997132113380178,0.004465744795506148
-0.03647187533256986,-0.033771083649990166,0.0029521450188780135
-0.03435949049151782,-0.03766774714806596,0.0046095993197311355
-0.022556724841164104,-0.030879084773886036,0.00412174484627248
-0.01652239471829866,-0.02742016800395504,-0.007555489794077628
-0.024019145115738594,-0.03566559407999386,-0.02256014212519702
-0.033273754227061,-0.041284539787163926,-0.023929887377600167
-0.03345840325162849,-0.029099393157821955,-0.013597379811527121
-0.02302204038307417,-0.002038033947428221,-0.005478981009612584
-0.012024344479834696,0.018026553788520038,-0.0073741080026635125
-0.009742082536180568,0.013268749185897113,-0.01760654285623222
-0.01104939763011837,-0.007470399081946401,-0.025918832538623916
-0.016588868367142955,-0.0303480477594153,-0.02909614116063669
-0.03259424581665265,-0.05085038222350836,-0.03501294028745576
-0.04548274773146318,-0.06188734071345414,-0.04277483005107359
-0.04062278540484695,-0.060373167604625425,-0.04466995704412451
-0.02711386276748966,-0.05187657537309369,-0.04532668421993424
-0.020008568302132795,-0.04293506023754593,-0.05281962856869666
-0.019720515823807516,-0.036081812280524976,-0.05769817330328321
-0.016411605303558167,-0.02423394591713064,-0.046721447650463474
-0.0058866109032114575,-0.003710082925423909,-0.02810166858012482
0.00864896031074105,0.014488699084005555,-0.013766252513878193
0.027172950455351258,0.026594907778764037,0.005860508226035378
0.04477369547712404,0.03585935082851697,0.03336799507566568
0.05072678002917979,0.036698963405450424,0.04748450208330906
0.05163525323005182,0.035902407883744325,0.04380682989877459
0.058733161734425984,0.049364913818164546,0.0413925757096074
0.06511463202347831,0.0666020882608497,0.04752828389502971
0.06271419470410099,0.06557589511126437,0.05400173748515417
0.053681164422259564,0.05048439725407582,0.05355141027888464
0.04096253961005112,0.039146039377538536,0.04499519335976362
0.022246514479890726,0.029049159926723373,0.02935257748642906
-0.006366698367086921,0.005769645400465808,0.008449889662085161
-0.046103168454009934,-0.031101546225894044,-0.020220942470408086
-0.09082516220425507,-0.06947973478521138,-0.05927431852522655
-0.1198150590613504,-0.0934051051398793,-0.08937118681090664
-0.1116388002535021,-0.08803732558820215,-0.08276638778562023
-0.07272955779664143,-0.05847865717462173,-0.048666610999766574
-0.03619120881522728,-0.03234302465161617,-0.02534341444172396
-0.02410039068654829,-0.023796199188985845,-0.024805523612013138
-0.024669109682216146,-0.01998564980136477,-0.025299632630003312
-0.01706156987003572,-0.008324364010622311,-0.012878107190402182
-0.0024152092413427186,0.005267313089479979,0.001225890728178158
0.0027180336416333956,0.002116971882011708,-0.0021703269524378614
-0.011536871054976533,-0.02536778170478437,-0.02708217782148686
-0.0333328419149226,-0.0555866582985176,-0.0531261012507412
-0.039869417384611604,-0.06195192629629517,-0.057316646086860414
-0.0319368952891924,-0.04809473068895752,-0.041261230274445455
-0.02238684773856202,-0.030821675366916226,-0.0211090877938841
-0.007459820592526439,-0.011948332825591506,-0.005172508327568045
0.011211888771737757,0.007384284971491687,0.004353162993938765
0.023191917485676256,0.021707932010459043,0.010470107545766513
0.030245510224154226,0.03322569428377698,0.022259923987684005
0.03268287734844504,0.04117689714909553,0.0364702491633002
0.02633833686430622,0.03774668508264944,0.03825904889931527
0.01703941198708762,0.02566200491550464,0.028258032193412847
0.00971253869224977,0.016655904197115847,0.020808869656371083
0.003271980715335854,0.013814138552110299,0.02059621514229936
0.0026441740318064013,0.013641910331200872,0.023642178329150193
0.012644765202381449,0.014747041415369696,0.02646297791286626
0.02472819737007774,0.015622534871659283,0.026500505180055388
0.029063756466922316,0.015615358695788058,0.026050177973785858
0.02966201930652097,0.01794761585393655,0.028927268458285617
0.029469984320970786,0.02458557853482072,0.033192867828783085
0.022940794812264475,0.029400792544413454,0.03496290393120359
0.01262999328041605,0.02458557853482072,0.030559704581012655
0.009136433735599213,0.015321135485067786,0.02018966974775048
0.01837627092495622,0.015077145505446098,0.01563636132880304
0.03678208569384323,0.02684607393425695,0.02569366893548915
0.048902447666453026,0.03617510256685092,0.03609497649140893
0.04138353938606499,0.02675278364793101,0.029164941150483424
0.023989601271807798,0.005159670451411587,0.012659198131798938
0.012009572557869297,-0.008812343969865686,0.0019951997055552674
0.00011078941474049168,-0.015615358695788058,-0.007937017010500421
-0.02220958467497723,-0.030319343055930398,-0.026994614198045563
-0.04277210005081249,-0.047061361363500955,-0.043093811822181166
-0.04012054005802339,-0.04400431044235863,-0.0377086489805414
-0.01984607716051341,-0.022246145200801003,-0.01580523403115411
-0.003700366452332422,-0.0030211700417862005,0.003752726718912729
0.0033089105202493514,0.007764622292666672,0.014729452371732461
0.012157291777523286,0.020380339474282208,0.023304432924448046
0.03556340213169783,0.0411410162697394,0.034844067585104686
0.07441355690069691,0.06921421627797603,0.04987999263888169
0.10565617185751555,0.09252961168358971,0.06188871813940242
0.10212568250778523,0.091840698799952,0.05997482751275693
0.07018878721859283,0.06575529950804503,0.042305739211209496
0.03761669928488827,0.03402224980548308,0.01874486996096908
0.01891544607669328,0.015428778123136179,0.0027519995938693345
0.014417395838229317,0.014029423828247083,0.002126545140717213
0.017778008085357563,0.01994976892200864,0.011677234640350108
0.02113862033248581,0.022368140190611847,0.0216407240790634
0.021744269133067165,0.020100468615304387,0.02723854143477489
0.020333550585371573,0.016282743051812088,0.02717599598945968
0.011987414674921199,0.007549337016529888,0.01910763354379731
-0.014816237731295086,-0.016548261559047456,-0.0016199270336639947
-0.060239897774896675,-0.058213138667386366,-0.03360566776786349
-0.10906109987054,-0.10467170125770432,-0.06938791703269635
-0.1492259556944596,-0.14327235126902968,-0.10393176648028803
-0.1729644342928556,-0.16635093287089292,-0.13051358073925318
-0.17235139953129155,-0.1678579298038504,-0.1396014339435535
-0.14340581844009243,-0.1436096315349773,-0.12517219970933408
-0.08832132143111997,-0.09555078172537591,-0.09007795034296853
-0.031449421864334234,-0.04813061156831365,-0.05499621006566604
-0.0075853819292323295,-0.028266956756759724,-0.04171155748071498
-0.012644765202381449,-0.027857914732099833,-0.04107359393849982
-0.01398162414025005,-0.0241406556308047,-0.0317230498638756
-0.00452759408239476,-0.013433801230935315,-0.01713745201636813
0.0002880524783252783,-0.0036454973425828737,-0.008287271504265609
-0.002754963446546893,0.0026982421275810247,0.0005128726515847397
-0.002407823280360019,0.00743451820259027,0.014748216005327025
0.007090522543391467,0.013046287733889104,0.0295402138223747
0.01782970981223646,0.0204879821123506,0.03922850330170106
0.020163673482769484,0.0227125966324307,0.03831533980009896
0.015370184804997545,0.01366343885881455,0.027144723266802073
0.013878220686492257,0.006594905625656813,0.020058324312588537
0.019351217774672545,0.014804450822339506,0.022053524018143804
0.02168518144520557,0.024119127103191022,0.013259634406824976
0.011071555513066468,0.014531756139232911,-0.014028943384202085
-0.01038466114167542,-0.006724076791338883,-0.03393090408350259
-0.030592650390341102,-0.0154072495955225,-0.02244756032362964
-0.03520149004354555,-0.0045640478540998185,0.010026034884028508
-0.019617112370049726,0.014007895300633405,0.03376828592568304
0.0010561924205260205,0.02999641514172522,0.03629512191641761
0.007629697695128526,0.03830642680060508,0.029483922921591008
0.004549751965342858,0.03939720553303145,0.026907050574604265
0.008693276076637247,0.035952641114842906,0.028708359399682377
0.019233042398949355,0.026451384261339514,0.02847068670748457
0.02644174031806401,0.014553284666846591,0.026575559714433643
0.033583964588334375,0.013146754196086269,0.028258032193412847
0.04448564299879876,0.02402583681686508,0.032198395248271214
0.04748434315777473,0.03194833497869873,0.03027199553256268
0.035452612716957335,0.028539651439866316,0.019489160760220104
0.02086533977612593,0.021090780885533594,0.005660362801026699
0.016677499898935348,0.014137066466315474,-0.005228799228351735
0.019594954487101628,0.003954072905045597,-0.011658471006755544
0.021596549913413178,-0.004721923723266793,-0.011677234640350108
0.02554803903915738,0.0002655185072353668,-0.0020890178735280857
0.0333106840319745,0.01585217249953852,0.010801598405937137
0.0345736833600161,0.025095087021677776,0.01477323418345311
0.024957162160541425,0.02193039346246705,0.009187925916804665
0.018871130310797082,0.01805525849200494,0.004597090230668093
0.026486056083960208,0.023100110129476912,0.006135708185422311
0.034137911662036835,0.0304843951009686,0.007086398954213536
0.02915977395969741,0.03148188354706903,0.004803490200208293
0.019469393150395736,0.026817369230772044,0.007611780694861318
0.015421886531876441,0.01982059775632657,0.019883197065705942
0.017482569646049585,0.014747041415369696,0.03542574022653616
0.021855058547807657,0.01407248088347444,0.04306879364405509
0.02491284639464523,0.014474346732263103,0.037364649031307734
0.026138915917773335,0.015766058389083806,0.027576286839477035
0.028591054964029552,0.02217438344208874,0.027263559612900976
0.03155282531809203,0.030376752462900208,0.03466268579369057
0.02632356494234082,0.029393616368542225,0.035081740277302494
0.00836090783241577,0.014955150515635254,0.022422542145503554
-0.012858958070879733,-0.004140653477697476,0.007455417081573288
-0.023243619212555154,-0.01601722454457672,0.0003377454047021456
-0.020909655542022128,-0.017014712990677153,-0.001313454351619455
-0.01675874546974504,-0.014373880270065937,-0.0021765814969693827
-0.013737887427820967,-0.012465017488319787,-0.0008881453234760125
-0.0038628575939518095,-0.003537854704514482,0.0068674898956102935
0.014616816784762201,0.012816650106009868,0.01935156078052664
0.031508509552195835,0.0217509890656864,0.024736723622166404
0.033709525925040264,0.015787586916697485,0.01580523403115411
0.0252452146388667,0.004398995809061617,0.004290617548623554
0.024107776647530988,0.00022963762787923614,0.004597090230668093
0.032394824870119764,0.0071115902883850945,0.01452305240219226
0.03425608703776002,0.017179765035715354,0.024417741851058824
0.02157439203046508,0.020516686815835503,0.02975912288097794
0.0058349091763325615,0.017416578839465815,0.028151704936376986
-0.0020015954263115495,0.013118049492601366,0.01674341571088229
-0.0026811038367198984,0.011768928428810853,0.0010132362141064368
0.006455329898879315,0.01622533364484228,-0.007211489844843961
0.01700986814315682,0.01837818640621012,-0.006529744490908148
0.004823032521702737,0.004671690492168211,-0.007924507921437379
-0.03221017584555228,-0.02547542434285276,-0.021847124048603603
-0.07072057640934719,-0.05965555001750281,-0.046121011375437435
-0.09006440822303703,-0.08040187446121755,-0.06392144511214681
-0.08320285047010925,-0.07586653131060264,-0.059605809385397175
-0.0545157780133046,-0.04598493498281704,-0.03370574048036783
-0.018029130758769343,-0.0011553643152674069,0.0010757816594216488
0.010222170000056032,0.03545030880385708,0.028683341221556292
0.027342827557953343,0.04552565972705856,0.040610757643167246
0.03680424357679133,0.03797632271052868,0.04343155722688331
0.03471401661868739,0.029881596327785604,0.044538611608962574
0.025060565614299216,0.021363475568640187,0.039472430538430386
0.02062160306369685,0.00609974949054221,0.02100901508137976
0.02076193632236814,-0.013118049492601366,-0.009456871331660077
0.01704679794807032,-0.02725511595891684,-0.04126748481897698
0.01158118682087273,-0.03120201268809121,-0.062232718088636084
0.009424486213924492,-0.028166490294562557,-0.0663044265786564
0.005509926893093786,-0.022138502562732608,-0.05536522819302579
-0.0005613330346851578,-0.014546108490975365,-0.03769613989147836
-0.0024225952023254177,-0.011295300821309927,-0.02481803270107618
-0.006477487781827413,-0.018292072295755406,-0.02184086950407208
-0.015495746141703435,-0.028094728535850298,-0.02291039661896221
-0.014749764082450791,-0.023867960947698108,-0.01957046983912988
-0.003419699934989843,-0.002777180062164512,-0.009544434955101374
-0.004970751741356727,0.017258702970298842,-0.000175127246882594
-0.03172270242069412,0.022346611662998166,-0.00040654539454887894
-0.06480442166220493,0.018213134361171918,-0.007098908043276579
-0.07631174887325066,0.018342305526853987,-0.00798079882222107
-0.061680160166523064,0.023365628636712276,-0.004722181121298517
-0.040268259277677375,0.020624329453903897,-0.011139343810639283
-0.024683881604181546,0.008001436096417134,-0.021277960496235173
-0.008323978027502274,0.00045209907988724615,-0.016912288413233365
0.013080536900360717,0.007664155830469506,-0.003114763176697565
0.03375384169093646,0.022167207266217515,0.001194618005520552
0.05127334114189955,0.03278077137976096,-0.006285817254178821
0.061237002507561096,0.03372802659476281,-0.015010906875650916
0.05836386368529101,0.027972733546039453,-0.015186034122533509
0.05014328911154653,0.025059206142321645,-0.004572072052542008
0.04324480155370525,0.024664516469404207,0.004153017568930086
0.0318925795232962,0.016864013297381405,-0.0036776721845344744
0.011005081864222173,-0.0007822031699636482,-0.024067487357293634
-0.013368589378685996,-0.018629352561703033,-0.03917846694544889
-0.03235050910422357,-0.027312525365886648,-0.04213686650885842
-0.04844451808552566,-0.03206315379263835,-0.043143848178433336
-0.06997459435009454,-0.042992469644515745,-0.04894806550368502
-0.09706629923463611,-0.056354509116738796,-0.05515257367895407
-0.1184338843575856,-0.06072480022231551,-0.0545709010375226
-0.1185077439674126,-0.05199139418703331,-0.041405084798670444
-0.09292277512334171,-0.032142091727221836,-0.01683097933432359
-0.054552707818218096,-0.005245784561866301,0.01122690743408058
-0.022711830021800793,0.01690707035260876,0.033149086017062436
-0.009018258359876023,0.02204521227640667,0.03933483055873692
-0.006551347391654408,0.016139219534387565,0.030078104652085522
0.003619120881522728,0.016562613910789906,0.02024596064853417
0.023856653974119207,0.025705061970731996,0.022097305829864453
0.03265333350451424,0.027140297144977222,0.02728857779102706
0.018871130310797082,0.011819161659909436,0.02043985152901133
0.0007607539812180428,-0.0053390748481922405,0.008037089723004761
-0.0029691563150451767,-0.00825260225191005,0.007661817051113488
0.0014624202745744902,-0.0026336565447399895,0.0158615249319378
0.001011876654629824,-0.0013706495914041906,0.016193015792108426
-0.0016027535332457795,-0.005891640390276652,0.00756799888314067
0.004084436423432793,-0.007290994685165747,0.002651926881364995
0.016662727976969948,-0.0008611411045471355,0.006773671727637476
0.02645651224002941,0.005540007772586572,0.013785016147472757
0.03170054453774602,0.005590241003685155,0.018957524475040802
0.024750355253025838,-0.004463581391902652,0.01885119721800494
-0.005930926669107654,-0.029400792544413454,0.005923053671350591
-0.03796383945107515,-0.05378543815483984,-0.01364116162324777
-0.03394587667648665,-0.048776467396724005,-0.014785743272516153
0.0039958048916404,-0.013527091517261254,0.011058034731729508
0.04133183765918609,0.021492646734322256,0.040504430386131385
0.049951254125996346,0.03183351616475911,0.04964231994668388
0.024794671018922035,0.017258702970298842,0.03426239494367322
-0.01223853734833298,-0.008073197855129395,0.005791708236188645
-0.031848263757400005,-0.028338718515471987,-0.015479997715515007
-0.03267549138746234,-0.0363616831395028,-0.019789378897733124
-0.03364305227619597,-0.03649803048105609,-0.015367415913947625
-0.03710706797708201,-0.0344671727094991,-0.010726543871558884
-0.02875354610564894,-0.026530322195923002,-0.007918253376905857
-0.0015510518063668833,-0.002827413293263095,-0.0008756362344129701
0.036530963020431455,0.03550771821082689,0.019457888037562498
0.06823150755817747,0.06700395410963837,0.045989665940275495
0.08287786818687047,0.07661285360121016,0.06459693592155111
0.08577316489208865,0.07652673949075545,0.07359722550241013
0.08574362104815786,0.07864371137276716,0.0768620977478642
0.08507149859873221,0.0788733490006464,0.07596769787985667
0.07869002830967989,0.06996053856858353,0.06652959018179117
0.06264772105525669,0.04948690880797539,0.04620857499887873
0.04851837769535265,0.03042698569399879,0.028852213923907362
0.0505125871606815,0.031144603281121404,0.0294526501989334
0.06003309086738109,0.042389670871332746,0.04188668472759757
0.05006204354073684,0.03115177945699263,0.04134879389788675
0.007371189060734046,-0.015507716057719665,0.009813380369956786
-0.05525437411157455,-0.07928956720117751,-0.04818501107083944
-0.11894351566539187,-0.13928239748462795,-0.11493976485576536
-0.1622769487508895,-0.17753859105413444,-0.16461335752510686
-0.16247636969742238,-0.17532115270992557,-0.17353859257158763
-0.11771006018128105,-0.1294940935962755,-0.13935125216229266
-0.046339519205456314,-0.056907074658823206,-0.07810675210963693
0.02994268582386355,0.018256191416399274,-0.012033743678646817
0.08663732232706449,0.07423036321196308,0.03877192155090001
0.10779071458151569,0.10226768234084357,0.06844348080843665
0.09957014000777122,0.10945103438794093,0.08288522413171914
0.08086150083859352,0.1049946291719095,0.08536827831073306
0.06753722722580373,0.0922784455280968,0.07685584320333269
0.06065351158992784,0.07247220012351269,0.06295824525429254
0.05296472620693772,0.047979911875017905,0.0503553380232773
0.03956659298432093,0.022856120149855223,0.03750850355553272
0.012666923085329547,-0.005274489265351205,0.013841307048256448
-0.03362828035423057,-0.04518120328523971,-0.025943850716749997
-0.09251654726929325,-0.09358450953665995,-0.0701071896538213
-0.15049634098348388,-0.13762470085837472,-0.10650238428274325
-0.191458880593535,-0.1671403122167278,-0.13426630745816592
-0.19476040515280166,-0.16613564759475613,-0.14194063359834244
-0.15382740938668132,-0.1274273549453624,-0.11449569219402736
-0.09456245846150099,-0.07908863427678317,-0.06883751711392248
-0.052499410665027654,-0.05438106075215161,-0.03426239494367322
-0.03834052346119282,-0.049623256149528686,-0.014028943384202085
-0.03791952368517895,-0.04288482700644735,-0.00044407266173800624
-0.033052175397580014,-0.026358093975013572,0.006329599065899469
-0.01823593766628493,-0.005439541310389406,0.007893235198779772
-0.0036486647254535256,0.009852889471193477,0.004597090230668093
0.000997104732664425,0.01086473026903636,-0.009444362242597034
0.000598262839598655,-0.0003085755624627236,-0.028883486646564968
0.0013073150939378016,-0.01340509652745041,-0.038759412461836965
0.0004800874638754639,-0.02059562475041899,-0.034055994974133016
0.0006425786054948517,-0.015141731088287133,-0.016574543008531218
0.005273576141647403,0.00023681380375046226,0.003227344978264947
0.007083136582408767,0.008496592231531737,0.006148217274485354
0.0005687189956678573,0.0007319699388650652,-0.00921294409493075
-0.0119578708309904,-0.016598494790146037,-0.026669377882406458
-0.02501624984840302,-0.031811987637145434,-0.037320867219587085
-0.029322265101316795,-0.03439541095078684,-0.03910341241107063
-0.01782970981223646,-0.022059564628149123,-0.03034079552240941
0.004431576589619667,-0.0016864013297381404,-0.015530034071767175
0.02358337341775933,0.016196628941357375,-0.0012383998172412005
0.029905756018950052,0.025633300212019736,0.013053234437284775
0.026249705332513827,0.02721923507956071,0.026631850615217334
0.023132829797814662,0.022920705732696257,0.031016286331813706
0.024772513135973936,0.017717978226057314,0.02362966924008715
0.026818424328181684,0.018980985179393114,0.01621803397023451
0.0279558623195174,0.028647294077934708,0.017543997410917007
0.02966940526750367,0.0398493046129187,0.021559415000153626
0.030023931394673242,0.04324363580000866,0.023341960191637173
0.029728492955365265,0.04091137864186017,0.026231559765199974
0.03483957795539328,0.04442770481876097,0.03366195866864718
0.04550490561441128,0.056921427010565656,0.04431344800582781
0.05156877958120752,0.0683028419423303,0.0493233381755763
0.048001360426563694,0.06869035543937652,0.04360042992923439
0.042535749299366106,0.060731976398186734,0.03671417640002953
0.04078527654646633,0.05096520103744797,0.03547577658278833
0.03886492669096448,0.039992828130343216,0.032048286179514704
0.0319664391331232,0.027341230069371555,0.02240377851190899
0.017652446748651674,0.011503409921575485,0.01240901635053809
-0.0014402623916263918,-0.00828848313126618,0.003471272214994274
-0.013996396062215448,-0.023279514526257563,-0.00530385376272999
-0.015259395390257053,-0.025138144076905133,-0.010188653041848059
-0.014927027146035578,-0.019698602766515725,-0.008831416878507956
-0.01397423817926735,-0.012508074543547144,-0.0004253090281434426
-0.0030651738078202695,-0.0011768928428810852,0.012377743627880484
0.01278509846105274,0.009113743356457184,0.016755924799945334
0.02489068851169713,0.011711519021841043,0.008005817000347155
0.037328646806563,0.014940798163892802,0.0016449452117900795
0.04857746538321425,0.026508793668309324,0.006817453539358124
0.0492200439887091,0.040071766064926705,0.016968579314017056
0.04380613458839041,0.0511661339618423,0.028439413984826963
0.04404248533983679,0.060100472921518835,0.040247994060339014
0.04615487018088883,0.060358815252882975,0.04600217502933854
0.04028303119964277,0.048905638562406074,0.04104232121584221
0.032010754899019396,0.0368568392746174,0.03147912262714627
0.02875354610564894,0.031711521174948264,0.0266818869714695
0.02076932228335084,0.02437746943455516,0.02290414207443069
0.004505436199446661,0.011173305831499083,0.013259634406824976
-0.0021493146459655383,0.006250449183837959,0.008468653295679725
0.008050697471142395,0.016971655935449796,0.02063999695402001
0.020488655766008262,0.03371367424302036,0.04276232096201055
0.024683881604181546,0.04425547659785154,0.05486486463050409
0.021456216654741886,0.042389670871332746,0.042599702804190995
0.01570993901020172,0.03153211677816761,0.015179779578001987
0.010613625932139102,0.01690707035260876,-0.008162180613635186
0.003700366452332422,-0.003171869735081949,-0.020427342439948287
-0.008663732232706448,-0.02884822700232904,-0.023654687418213236
-0.024447530852735162,-0.050943672509834295,-0.02106530598216345
-0.03205507066491559,-0.05557948212264637,-0.013647416167779291
-0.018560919949523705,-0.03566559407999386,6.879998984673336e-05
0.010657941698035299,-0.00045209907988724615,0.020252215193065692
0.03317773673428591,0.028704703484904517,0.04074835762286071
0.04040859253634866,0.041148192445610625,0.05143111968269895
0.04029041716062547,0.045030503591943966,0.04883548370211765
0.03112443958109546,0.043071407579099226,0.03624508556016544
0.009963661365661552,0.02874058436426065,0.018876215396131026
-0.013257799963945504,0.007635451126984602,0.006485962679187499
-0.03221017584555228,-0.010943668203619847,0.004897308368181111
-0.05376979595405196,-0.03308934694222369,0.00432814481581268
-0.08724297112764584,-0.0660208180152804,-0.009175416827741622
-0.12624823107728161,-0.09329028632593968,-0.03103504996540827
-0.14384159013807168,-0.09083603417798035,-0.04405701168003544
-0.12265865403968967,-0.0703336997138873,-0.05302602853823686
-0.08342442929959024,-0.0660782274222502,-0.07511082527903827
-0.05681281187892413,-0.07494080462321447,-0.09684536752607449
-0.0358957703759193,-0.059870835293639596,-0.09172915009929014
0.002319191748567626,-0.01631862393116822,-0.06883751711392248
0.038451312875933306,0.012565483950516952,-0.0602312638385493
0.03611734920540029,-0.0004736276075009245,-0.06916275342956159
0.010406819024623518,-0.025805528432929162,-0.06654209927085421
0.004594067731239055,-0.023207752767545303,-0.040760866711923756
0.022711830021800793,0.00010764263806839194,-0.01591156128818997
0.03399757840336554,0.011324005524794832,-0.009613234944948108
0.027335441596970645,0.007104414112513868,-0.00824348969254496
0.02344304015908804,0.008202369020811466,0.0011883634609890308
0.034662314891808495,0.02162181790000433,0.011702252818476193
0.04993648220403095,0.038557592956097994,0.018619779070338658
0.05823091638760242,0.048919990914148524,0.02656930516990212
0.05348174347572668,0.0444635856981171,0.032986467859242884
0.030947176517510673,0.024858273217927312,0.030040577384896395
0.00031021036127337667,0.0014711160536013566,0.017287561085124636
-0.0226379704119738,-0.014825979349953184,-0.0017012361125737705
-0.033746455729953766,-0.02046645358473692,-0.019451633493030977
-0.02952907200883238,-0.011711519021841043,-0.021671996801721008
-0.006455329898879315,0.008754934562895878,-0.006479708134655979
0.02420379414030608,0.026803016879029595,0.010807852950468658
0.046642343605747,0.03702906749552683,0.022478833046287245
0.05419079573006583,0.04430570982895012,0.03005934101849096
0.04725537836731105,0.044764985084708594,0.02935257748642906
0.03284536849006443,0.03298888048002652,0.01895126993050928
0.017320078504430198,0.014847507877566862,0.007424144358915682
-0.0033089105202493514,-0.005963402148988914,-0.0009444362242597035
-0.029883598136001954,-0.032902766369571804,-0.014016434295139043
-0.053393111943934285,-0.0625906059488343,-0.0383841397899457
-0.07012231356974853,-0.08645139072066119,-0.06478457225749674
-0.08160748289784617,-0.10037317191083987,-0.07791286122915977
-0.08594304199469074,-0.10320058520410297,-0.07389118909539164
-0.08019676435015058,-0.09360603806427363,-0.058211045954867945
-0.0664958067272431,-0.07391461147362914,-0.03799010348445986
-0.05093358693669537,-0.05371367639612758,-0.018038106428907182
-0.0385916461346046,-0.04165052475659645,-0.003496290393120359
-0.03378338553486726,-0.03730176217863342,-0.0030146904641932255
-0.03088808882964908,-0.030563333035552087,-0.012246398192718538
-0.010155696351211737,-0.004721923723266793,-0.0068987626182679
0.028908651286285628,0.04099031657644365,0.023829814665095827
0.057684355274882665,0.07982778039151947,0.057917082361886446
0.06433910612029486,0.09240044051790765,0.07419140723290465
0.062027300332709936,0.08681737569009372,0.0772123522416294
0.054737356842785585,0.07420883468434941,0.07529220707045238
0.04232894239185052,0.05921780328935802,0.06673599015133136
0.03760192736292287,0.05153929510714606,0.05674122798996046
0.04856269346124885,0.0574811687285213,0.05693511887043762
0.06351187849023253,0.0683028419423303,0.06493468132625325
0.06812071814343698,0.07122354552191934,0.06815577175998667
0.05695314513759542,0.05841407159178069,0.05943068213851458
0.023575987456776627,0.024578402358949494,0.035388212959347035
-0.029433054516057287,-0.025740942850088128,-0.004021672133768141
-0.07759690608424037,-0.07465375758836543,-0.04864159282164049
-0.10261315593264339,-0.10843201741422681,-0.08455518752163531
-0.1091571173633151,-0.12488698868694834,-0.10425700279592713
-0.09829236875776422,-0.118371020995875,-0.10183649406222842
-0.06812071814343698,-0.08751346474960264,-0.07747504311195329
-0.033273754227061,-0.05357732905457428,-0.04799112019036228
-0.007910364212471106,-0.037926089479430096,-0.02996552285051814
0.0050667692341318194,-0.034402587126658064,-0.02100276053684824
0.008013767666228898,-0.024363117082812708,-0.010538907535613247
0.012460116177813963,-0.004212415236409738,0.004021672133768141
0.0239305135839462,0.018399714933823797,0.021302978674361258
0.026404810513150516,0.03521349500010662,0.03500043119839272
0.006196821264484834,0.03164693559210723,0.028114177669187862
-0.02805926577327519,-0.0008754934562895878,-0.004077963034551832
-0.05363684865636337,-0.0397129572713654,-0.03527563115777965
-0.05162048130808642,-0.048841052979565036,-0.03980392139860101
-0.026921827781939477,-0.024671692645275432,-0.027050905098829254
-0.005650260151765075,0.005059203989214421,-0.016193015792108426
-0.006130347615640539,0.017251526794427617,-0.008274762415202567
-0.01926258624288015,0.011166129655627858,0.0006066908195575578
-0.02553326711719198,0.0021456765854966126,0.011527125571593598
-0.021463602615724588,0.003092931800498462,0.024843050879202265
-0.014602044862796803,0.01244348896070611,0.034537594903060145
-0.006344540484138823,0.019698602766515725,0.03288014060220702
0.007925136134436505,0.023042700722507102,0.02425512369323927
0.02980235256519226,0.031008255939568106,0.02101526962591128
0.05238862125028716,0.04162899622898278,0.027670105007449854
0.060468862565360354,0.043279516679364784,0.03768363080241532
0.042188609133179227,0.0333692178012015,0.03855301249229677
0.0047934886777719395,0.01614639571025879,0.02111534233841562
-0.025252600599849403,-0.0016792251538669143,-0.005028653803343056
-0.02777121329494991,-0.014086833235216893,-0.022979196608808945
-0.016699657781883443,-0.02443487884152497,-0.03721453996255123
-0.0146537465896757,-0.030800146839302548,-0.054139337464847635
-0.009993205209592348,-0.021392180272125094,-0.05803591870798535
0.01184708141624991,-0.002604951841255085,-0.042049302885417125
0.03112443958109546,0.009142448059942089,-0.022372505789251384
0.03507592870683966,0.018414067285566247,-0.006942544429988548
0.041479556878840085,0.03472551504086324,0.009663271301200278
0.05704177666938781,0.05057768754040176,0.025143269016715285
0.06924338421280729,0.05960531678640423,0.03638894008439043
0.07180631267380401,0.06464299224800497,0.04604595684105918
0.06441296573012185,0.06404019347482198,0.050449156191250115
0.050364867941027514,0.05582347210226806,0.04484508429100711
0.03416006954498493,0.0415787629978842,0.02987170468254532
0.017408710036222592,0.023530680681750477,0.009531925866038331
0.0027180336416333956,0.006286330063194089,-0.008818907789444913
-0.011285748381564752,-0.007778974644409124,-0.0192514880680223
-0.02339133843220914,-0.016454971272721514,-0.019113888088328833
-0.023723706676430617,-0.01565123957514419,-0.011420798314557739
-0.012415800411917767,-0.006559024746300683,-0.0028708359399682378
0.0028509809393219856,0.008496592231531737,0.011289452879395792
0.022682286177869996,0.02897739816801111,0.03808392165243268
0.04465552010140084,0.049085042959186725,0.06622937204427815
0.05882179326621838,0.062088273637848475,0.08219096968872028
0.05866668808558169,0.06465734459974742,0.0834919149512767
0.04515037948724171,0.05448152721434878,0.07119548040230599
0.028642756690908447,0.03796914653465745,0.05297599218198469
0.019365989696637945,0.0277933291492588,0.04238079374558775
0.017386552153274493,0.025618947860277283,0.04291868457529858
0.020267076936527278,0.025410838760011725,0.04495141154804297
0.022224356596942628,0.020810910026555777,0.039416139637646695
0.007120066387322265,-0.00028704703484904516,0.020164651569624395
-0.036693454162050845,-0.045353431506149136,-0.01755650649998005
-0.09627600140948726,-0.10200934000947944,-0.06821206266077037
-0.1369431025802304,-0.14063151854841846,-0.1108492927321505
-0.13332398169870768,-0.13468246875117199,-0.12022485498490079
-0.09773103572307905,-0.0911517859163143,-0.09483140418692466
-0.06416922901769277,-0.049199861773126345,-0.06454689956529894
-0.043946467847061695,-0.029020455223238466,-0.04710297486688627
-0.019934708692305802,-0.009766775360738762,-0.02698835965351404
0.012858958070879733,0.02017223037401665,-5.6290900783690936e-05
0.039714312203974915,0.04025117046170736,0.015104725043623734
0.055549812550882524,0.04165052475659645,0.018163197319537607
0.06568335101914616,0.04214568089171106,0.02641919610114561
0.06814287602638508,0.04837460154793534,0.038321594344630484
0.05970072262315961,0.04723358958441039,0.0391221760446652
0.05470042703787209,0.043853610749062875,0.037364649031307734
0.0704916116188835,0.05795479633602222,0.05320741032965098
0.09884631583146668,0.08547543080217443,0.08070864263474975
0.11923895410469984,0.10718336281263346,0.09900318538944931
0.11676465717549553,0.10825978919331739,0.09870922179646781
0.08496070918399172,0.0819806331528873,0.08122776983086602
0.042476661611504506,0.042762832016636505,0.052538174064778204
0.01395208029631925,0.009257266873881707,0.01416028881936403
-0.005797979371419064,-0.01963401718367469,-0.029308795674708413
-0.025422477702451488,-0.041786872098149755,-0.05236930136242713
-0.03709968201609931,-0.04617869173134014,-0.03962879415171842
-0.04280902985572598,-0.04099031657644365,-0.014166543363895551
-0.05554242658989982,-0.04701112813240237,-0.006454689956529894
-0.07805483566516773,-0.06867600308763407,-0.022729014827548095
-0.10497666344710721,-0.09814855739075977,-0.0536577375359205
-0.1343580162362856,-0.13305347682840366,-0.09689540388232666
-0.1553563033101001,-0.16078222039482143,-0.14056463380140777
-0.14269676618575328,-0.15178329585230388,-0.14770732365640502
-0.09025644320858722,-0.09955508786152009,-0.10406311191544997
-0.030880702868666378,-0.04038751780326066,-0.0469653748871928
-0.0009306310838201301,-0.011453176690476902,-0.016343124860864935
-0.000745982059252644,-0.009809832415966118,-0.010982980197351253
-0.010451134790519715,-0.014912093460407897,-0.013115779882599987
-0.020939199385952924,-0.02185863170375479,-0.01905134264301362
-0.028317774407669673,-0.028410480274184247,-0.02419883279245558
-0.025607126727018974,-0.02549695287046644,-0.017487706510133316
-0.013346431495737898,-0.013204163603056079,-0.002407999644635668
-0.002223174255792533,-0.0018083963195489846,0.007267780745627651
-0.0019351217774672546,0.00032292791420517584,0.007167708033123312
-0.010606239971156404,-0.008754934562895878,0.0019389088047715767
-0.014742378121468091,-0.019433084259280357,0.000262690870323891
-0.009239837189357005,-0.016892718000866308,0.007987053366752591
-0.006078645888761643,5.7409406969809034e-05,0.020514906063389585
-0.011108485317979965,0.018119844074845976,0.030547195491949612
-0.015237237507308954,0.027011125979295152,0.03345555869910698
-0.009646065043405474,0.03101543211543933,0.023610905606492587
0.0026146301878756033,0.03126659827093225,-0.0028395632173106315
0.009668222926353573,0.01616792423787247,-0.03680174002347083
0.004313401213896476,-0.01045568824437647,-0.057635627857968
-0.01344244898851299,-0.02999641514172522,-0.05660988255479851
-0.03933762819385724,-0.03936850082954654,-0.0464650113246711
-0.05862237231968549,-0.04547542649595998,-0.04237453920105623
-0.06080861677056453,-0.047750274247138666,-0.04536421148712337
-0.057425846640488186,-0.04551848355118734,-0.04700290215438193
-0.05558674235579602,-0.03821313651427914,-0.039947775922826
-0.041974416264680944,-0.020645857981517576,-0.024636650909662064
-0.01343506302753029,0.004011482312015407,-0.006661089926070094
0.013183940354118509,0.025317548473685784,0.01153338011612512
0.027232038143212855,0.03874417352874987,0.026769450594910798
0.03447027990625831,0.04601363968630194,0.03507548573277097
0.043082310412085864,0.052199503287298867,0.03998530319001513
0.05481860241359528,0.06070327169470183,0.047271847569237344
0.06888885808563772,0.0694295015541128,0.05491490098675626
0.08422949904670447,0.07395766852885649,0.057072718850131085
0.09702936942972261,0.07328310799696124,0.05281962856869666
0.10151264774622117,0.07130248345650282,0.045589375090258136
0.09687426424908592,0.0691783353986199,0.04032930313924879
0.08472435843254533,0.0625619012453494,0.03850923068057612
0.06274373854803178,0.048661648582784385,0.033042758760026575
0.037557611597026676,0.030893437125628486,0.01992072433289507
0.026530371849856405,0.02019375890163033,0.010613962069991502
0.029765422760278763,0.02124865675470057,0.01210254366849355
0.028664914573856545,0.022561896939134952,0.01327839804041954
0.01797004307090775,0.018399714933823797,0.009150398649615537
0.012659537124346849,0.01772515440192854,0.010007271250433944
0.02036309442930237,0.023164695712317947,0.020327269727443947
0.027697353685122918,0.026300684568043766,0.03064101365992243
0.028236528836859977,0.025188377308003714,0.034337449478051466
0.03523103388747635,0.02879799377123046,0.03672043094456105
0.05232214760144287,0.04094725952121629,0.04537046603165489
0.06820934967522937,0.054854688359652536,0.06102559099405249
0.07969451900332701,0.06566200922171908,0.0782130793666728
0.09094333757997826,0.07469681464359278,0.0934866771126476
0.09611351026786788,0.07875853018670677,0.10370034833262175
0.081120009472988,0.0659418800806969,0.0999163488910514
0.03783827811436925,0.027542162993765884,0.07519838890247957
-0.03235789506520627,-0.03423753508161986,0.028345595816854145
-0.11896567354833996,-0.10968784819169139,-0.04281861186279424
-0.1982096489317223,-0.18147113543156637,-0.13274019859247474
-0.2396301181227008,-0.22428420067930147,-0.21015269625911281
-0.22673423024690756,-0.21922499669008702,-0.23798541942438223
-0.17101454059342294,-0.1737639225458695,-0.21382411389911576
-0.10301938378669186,-0.11415142958359405,-0.1604978672233659
-0.049426850896224686,-0.059985654107579216,-0.09725191292062337
-0.016980324299226024,-0.020904200312881715,-0.043494102672198526
0.004453734472567765,0.0013778257672754169,-0.00962574403401115
0.02557019692210548,0.018471476692536057,0.014766979638921589
0.04696732588898577,0.03933261995019042,0.03575723108670679
0.060579651980100846,0.05346968641650589,0.04610224774184287
0.058600214436737394,0.04857553447232967,0.04241832101277688
0.0412284342054283,0.03167564029559214,0.029702831980194248
0.019314287969759047,0.019390027204053,0.017218761095277903
0.0049559798193913275,0.014345175566581034,0.0079307624659689
-0.001344244898851299,0.00654467239455823,-0.0025205814462030494
-0.005081541156097218,-0.00511661339618423,-0.011345743780179484
-0.008877925101204732,-0.013082168613245234,-0.011858616431764224
-0.011529485093993833,-0.015077145505446098,-0.003984144866579014
-0.015015658677827972,-0.014883388756922992,0.0038965812431377166
-0.023066356148970367,-0.01629709540355454,0.0010632725703586066
-0.030932404595545276,-0.02011482096704684,-0.010282471209820877
-0.03544522675597463,-0.027197706551947032,-0.02100276053684824
-0.03891662841784337,-0.0385862976595829,-0.030253231898968117
-0.042424959884625614,-0.05051310195756072,-0.03963504869624994
-0.045157765448224405,-0.0554503109569643,-0.04458864796521474
-0.04020178562883308,-0.048561182120587215,-0.037564794456316414
-0.022778303670645088,-0.029989238965853995,-0.01642443393977471
-0.00035452612716957335,-0.006185863600996924,0.00931927135196661
0.01424013277464453,0.009149624235813315,0.021709524068910135
0.01303622113446452,0.008388949593463346,0.014541816035786824
0.005170172687889611,0.003961249080916824,0.006479708134655979
0.011101099356997265,0.011603876383772652,0.014297888799057497
0.033421473446714985,0.02927162137873138,0.031222686301353903
0.059124617666509054,0.051496238051918705,0.05073061069516857
0.07912580000765915,0.07864371137276716,0.07445409810322855
0.08396360445132729,0.09954791168564887,0.09141642287271408
0.06814287602638508,0.0966702651612872,0.08701947806705466
0.04265392467508929,0.07189092987794336,0.0643029723285696
0.028938195130216424,0.04709006606698586,0.04107359393849982
0.03170793049872871,0.03724435277166361,0.03011563191927465
0.036375857839794766,0.03941873406064513,0.028739632122339983
0.04291243330948377,0.04918550942138389,0.03346806778817002
0.060077406633277285,0.06661644061259216,0.04562064781291574
0.07994564167673879,0.08678149481073759,0.06196377267378068
0.08696969057128597,0.09461787886211652,0.0743227526680666
0.07366018888046157,0.07647650625965687,0.07314064375160909
0.04567478271701337,0.0384499503180296,0.054183119276568284
0.009934117521730753,-0.00565482658652619,0.019138906266454918
-0.03264594754353155,-0.05023323109858291,-0.02744494140431509
-0.07061717295558939,-0.08254755104671417,-0.06877497166860727
-0.08833609335308536,-0.09060639655010111,-0.08710078714596443
-0.08900082984152831,-0.0821169804944406,-0.08769496887645895
-0.08105353582414371,-0.0664083315123266,-0.08292900594343978
-0.07107510253651676,-0.05448152721434878,-0.07955780644094985
-0.07165120749316732,-0.06083961903625513,-0.08139038798868557
-0.0783872039093892,-0.07113743141146463,-0.07598646151345123
-0.06935417362754778,-0.05836383836068211,-0.05451461013673891
-0.04219599509416193,-0.029321854609829966,-0.03317410419518852
-0.01886374434981438,-0.011955509001462732,-0.025137014472183764
-0.017238832933620503,-0.0170003606389347,-0.02563112349017394
-0.03375384169093646,-0.03415142097116515,-0.029164941150483424
-0.052344305484390966,-0.050943672509834295,-0.03501919483198728
-0.0585706705928066,-0.0581413769086741,-0.036232576471102396
-0.04419020455949078,-0.04617869173134014,-0.024036214634636028
-0.017231446972637805,-0.017825620864125705,-0.00551025373227019
0.005709347839626671,0.008683172804183617,0.0059167991268190695
0.022224356596942628,0.023466095098909442,0.011939925510673998
0.03247607044092946,0.02777180062164512,0.018400870011735414
0.03019380849727533,0.020495158288221824,0.02249759667988181
0.021766427016015263,0.008166488141455335,0.024273887326833835
0.023790180325274912,0.00680301472592237,0.030922468163840887
0.04417543263752538,0.023889489475311786,0.04830384741693834
0.07432492536890452,0.050254759626196584,0.07097031679917122
0.09553740531121732,0.06987442445812882,0.08414864212708642
0.10129106891674018,0.0761033451143531,0.08081496989178562
0.10293813821588216,0.07847148315185773,0.07116420767964839
0.10300461186472645,0.08870470994422619,0.07141438946090924
0.08926672443690549,0.09878723704329889,0.0801582427159759
0.0626624929772221,0.09551490084601978,0.0815467516019736
0.03786043599731735,0.08517403141558293,0.07301555286097866
0.02231298812873502,0.07819878846875114,0.06407780872543485
0.020555129414852553,0.07635451126984602,0.058079700519706
0.03582929672707501,0.07878005871432045,0.05435824652345088
0.05246248086011416,0.07522067548219229,0.04888552005836982
0.04229939854791972,0.04929315205945228,0.0316354862404343
-0.0018612621676402602,0.0027341230069371555,0.0019451633493030977
-0.05411693612023883,-0.042597779971598304,-0.02728857779102706
-0.08449539364208165,-0.07034087588975853,-0.05034908347874578
-0.08871277736320303,-0.08249731781561559,-0.07122049858043207
-0.0785423090900259,-0.08439182824561928,-0.0838171512669158
-0.06333461542664774,-0.0743738867293876,-0.07823809754479888
-0.049316061481484194,-0.05664155615158784,-0.0605252274315308
-0.0372695591187014,-0.04228920440913558,-0.04453235706443105
-0.025717916141759466,-0.0343308253679458,-0.0352005766234014
-0.0212863395521398,-0.031309655326159605,-0.031447849904488664
-0.03116136938600896,-0.037660570972194725,-0.03560086747341876
-0.04901323708119352,-0.053907433144650685,-0.049754901748251264
-0.06319428216797646,-0.06938644449888545,-0.06805569904748233
-0.06839399869979686,-0.07495515697495693,-0.08043969721989434
-0.06360789598300762,-0.07152494490851083,-0.08177191520510836
-0.04746957123580933,-0.06051669112204995,-0.06854980806547252
-0.020695462673523846,-0.040043061361441805,-0.038077667107901156
0.0036929804913497224,-0.01963401718367469,-0.004972362902559366
0.01223853734833298,-0.010828849389680229,0.012271416370844623
0.011647660469717025,-0.005669178938268642,0.021071560526694972
0.015399728648928343,0.004750628426751698,0.03252363156391032
0.027431459089745737,0.018292072295755406,0.03892828516418804
0.04498788834562232,0.03646932577757119,0.035131776633554664
0.05927233688616305,0.0547901027768115,0.026500505180055388
0.062315352811035216,0.05895228478212265,0.018776142683626686
0.0558526369511732,0.05080014899240977,0.018206979131258256
0.04517253737018981,0.042375318519590296,0.02496188722530117
0.03272719311434124,0.031711521174948264,0.027820214076206363
0.0186347795593507,0.014524579963361687,0.018419633645329978
0.005487769010145687,-0.0029063512278465825,0.000788072610971673
-0.0008937012789066328,-0.011395767283507094,-0.012383998172412005
-0.002319191748567626,-0.011639757263128781,-0.013422252564644526
-0.011396537796305244,-0.01931826544534074,-0.014266616076399891
-0.03752068179211318,-0.04670972874581088,-0.03204203163498318
-0.07232332994259297,-0.08165770523868213,-0.06126951823078182
-0.0943925813588989,-0.09940438816822435,-0.08106515167304647
-0.09236144208865656,-0.09433083182726747,-0.08477409658023854
-0.07541804759434403,-0.08119125380705243,-0.07860086112762711
-0.05920586323731875,-0.06870470779111897,-0.0638588996668316
-0.04814169368523498,-0.053728028747870034,-0.0423370119338671
-0.03288968425596063,-0.032106210847865704,-0.020702542399335222
-0.008634188388775652,-0.005518479244972893,-0.0030709813649769163
0.01584288630789031,0.01679225153866914,0.010882907484846913
0.034558911438050705,0.03049874745271105,0.02189090586032425
0.048215553295061976,0.04301399817212942,0.029315050219239934
0.05038702582397561,0.05569430093658599,0.03313032238346787
0.033901560910590454,0.055651243881358635,0.03135403173651585
0.010281257687917628,0.039081453794697504,0.022916651163493732
-0.0012260695231281079,0.020538215343449184,0.014179052452958594
0.0006573505274602506,0.010003589164489225,0.013972652483418394
0.0026441740318064013,0.003286688549021567,0.022334978522062256
-0.006669522767377599,-0.00800861227228836,0.02528086899640875
-0.024802056979904737,-0.02233943548712694,0.011151852899702325
-0.032010754899019396,-0.02724076360717439,-0.011664725551287065
-0.017357008309343697,-0.022626482521975987,-0.03022195917631051
0.003700366452332422,-0.016785075362797917,-0.03804639438524355
0.01183969545526721,-0.007944026689447325,-0.030246977354436596
0.005967856474021152,0.00014352351742452258,-0.01436043424437271
0.00047270150289276445,-0.00022963762787923614,-0.0036088721946877407
-0.00013294729768859002,-0.005087908692699326,0.0006567271758097275
-0.004616225614187153,-0.009451023622404813,0.002451781456356316
-0.01105678359110107,-0.012156441925857063,0.0031898177110758195
-0.012792484422035438,-0.013204163603056079,-0.0006317089976836427
-0.012349326763073471,-0.013354863296351827,-0.011502107393467515
-0.010488064595433211,-0.00912091953232841,-0.019138906266454918
-0.0011522099133011133,0.004363114929705487,-0.0125591254192946
0.013915150491405754,0.022927881908567482,0.002802035950121504
0.02567360037586327,0.03628274520491931,0.01967054255163422
0.03353964882243818,0.04170793416356627,0.03979766685406949
0.041235820166411,0.04454969980857181,0.059605809385397175
0.04910925457396861,0.05021170257096923,0.07350340733443732
0.05467826915492399,0.05777539193924157,0.08130282436524428
0.05398398882255024,0.06101902343303578,0.07971417005423788
0.04710027318667436,0.060509514946178726,0.07026980781164084
0.03569634942938642,0.059512026500078294,0.058867773130677675
0.024573092189441054,0.05542878242935063,0.04216188468698451
0.02622754744956573,0.0503121690331664,0.022366251244719863
0.04017224178490228,0.04734840839835,0.010939198385630605
0.048636553071075846,0.04330822138284969,0.008618762364436233
0.04592590539042515,0.03970578109549418,0.01086414385125235
0.04317832790486095,0.04055256984829886,0.016149233980387777
0.04904278092512431,0.04488698007451944,0.02249759667988181
0.05708609243528401,0.05096520103744797,0.029258759318456243
0.05176820052774041,0.05043416402297724,0.029702831980194248
0.03202552682098479,0.03348403661514112,0.016355633949927978
0.013339045534755197,0.009321852456722741,-0.0014197816086553158
0.0017357008309343694,-0.005769645400465808,-0.011983707322394647
-0.01225330927029838,-0.015823467796053616,-0.019808142531327688
-0.03099887824438957,-0.032091858496123254,-0.031266468113074555
-0.04514299352625901,-0.048790819748466455,-0.03990399411110535
-0.04957457011587867,-0.05559383447438883,-0.03656406733127302
-0.04644292265921411,-0.05370650022025635,-0.02595635980581304
-0.0399358910334559,-0.04792250246804809,-0.02044610607354285
-0.02856151112009875,-0.03815572710730933,-0.02100276053684824
-0.008693276076637247,-0.024255474444744317,-0.017687851935141996
0.011123257239945363,-0.01057050705831609,-0.005854253681503857
0.02050342768797366,-0.00045927525575847227,0.007392871636258076
0.02288170712440288,0.0075421608406586625,0.01323461622869889
0.02011197175589059,0.008726229859410973,0.006510980857313584
0.0012851572109897035,-0.007700036709825637,-0.014729452371732461
-0.032217561806534976,-0.0341370686194227,-0.0410986121166259
-0.05558674235579602,-0.04749910809164575,-0.05624086442743876
-0.055978198287879095,-0.04251166586114359,-0.05634719168447462
-0.04953764031096518,-0.03259419080710908,-0.049917519906070816
-0.0479053429337886,-0.023580913912849062,-0.040910975780680266
-0.03776441850454226,-0.009041981597744924,-0.023510832893988247
-0.006891101596858582,0.013720848265784359,0.004421962983785499
0.028783089949579736,0.03448870123711278,0.03154166807246148
0.04363625748578832,0.039619666985039464,0.04594588412855485
0.0345662973990334,0.02786509090797106,0.04630239316685155
0.01768937655356517,0.012859707161237225,0.03814646709774789
0.006743382377204593,0.008941515135547758,0.03010937737474313
0.00252599865608321,0.013196987427184852,0.02712595963320751
-0.0023782794364292214,0.010470040596118923,0.025449741698759822
-0.010355117297744621,2.152852761367839e-05,0.019038833553950578
-0.015746868815115216,-0.005812702455693165,0.010051053062154591
-0.018937603959641378,-0.008209545196682691,0.003490035848588838
-0.026700248952458493,-0.017029065342419606,-0.006079417284638621
-0.034374262413483216,-0.024549697655464588,-0.02007083340165158
-0.03045231713166981,-0.017014712990677153,-0.02394239646666321
-0.017371780231309093,-0.003049874745271105,-0.013666179801373855
-0.007836504602644111,-0.00010764263806839194,-0.00530385376272999
-0.00839783763732927,-0.01069967822399816,-0.009131635016020974
-0.01926258624288015,-0.02439899796216884,-0.019758106175075518
-0.03468447277475659,-0.030864732422143583,-0.02862079577624108
-0.043843064393303904,-0.033476860439269895,-0.03585730379921112
-0.045194695253137906,-0.04068174101398093,-0.04380057535424307
-0.04507651987741471,-0.04574812117906658,-0.04258093917059643
-0.043843064393303904,-0.0401794087029951,-0.027563777750413992
-0.039455803569580436,-0.03162540706449355,-0.01436668878890423
-0.032956157904804925,-0.026673845713347525,-0.011395780136431654
-0.021995391806478946,-0.019110156345075183,-0.008062107901130846
-0.0049559798193913275,-0.004944385175274803,0.004027926678299662
0.007895592290505706,0.009910298878163285,0.0206962878548037
0.010901678410464381,0.02132041851341283,0.03257366792016249
0.018922832037675977,0.0332041657561633,0.04043563039628465
0.04451518684272955,0.052945825577906384,0.05634719168447462
0.07400732904664843,0.07878723489019168,0.08003940636987698
0.08400792021722349,0.09219950759351331,0.09004667762031093
0.0770798888154514,0.08305705953357122,0.07384115273913947
0.07261138242091825,0.06589882302546955,0.051456137860825035
0.07423629383711212,0.058127024556931646,0.050599265260006625
0.07401471500763114,0.06058127670489098,0.06524115400829779
0.06685033285441268,0.05914604153064576,0.06335228155977839
0.05350390135867478,0.04508073682304255,0.03565715837420245
0.039714312203974915,0.02703265450690883,0.006911271707330942
0.027232038143212855,0.012486546015933466,-0.005041162892406099
0.007275171567958953,-0.005410836606904502,-0.015580070428019345
-0.023494741885966935,-0.03061356626665067,-0.04079213943458136
-0.046738361098522085,-0.04909221913505795,-0.0625579544042752
-0.042107363562369535,-0.04363114929705487,-0.05614704625946595
-0.015059974443724169,-0.016892718000866308,-0.027720141363702024
0.01158857278185543,0.012235379860440551,-0.000788072610971673
0.02369416283249982,0.029881596327785604,0.014404216056093358
0.024669109682216146,0.03575170819044858,0.02342326927054695
0.025038407731351117,0.035249375879462745,0.028351850361385666
0.02675195067933739,0.03042698569399879,0.0236734510518078
0.0252673725218148,0.022590601642619855,0.011445816492683824
0.0186347795593507,0.013304630065253243,-0.0010007271250433943
0.004542366004360159,-0.0008467887528046833,-0.014022688839670564
-0.016027535332457796,-0.0220810931557628,-0.028958541180943223
-0.038000769255988644,-0.04520990798872462,-0.042055557429948646
-0.05777298680667506,-0.06372444173648803,-0.051349810603789174
-0.06741166588909783,-0.07217797691279242,-0.05148115603895112
-0.06030637142374097,-0.06838895605278501,-0.03740843084302838
-0.04593329135140785,-0.059562259731176875,-0.021378033208739513
-0.03927854050599565,-0.0536921478685139,-0.016274324871018202
-0.044271450130300476,-0.05114460543422863,-0.01621803397023451
-0.059759810311021205,-0.05451740809370491,-0.015980361278036703
-0.08229437726923722,-0.0706638038039637,-0.022378760333782905
-0.10095131471153601,-0.09454611710340426,-0.036689158221903446
-0.1051096107447958,-0.1121062194602946,-0.051994028690535855
-0.0956777385698886,-0.11939003796958912,-0.0674239900497987
-0.08450277960306435,-0.12264802181512578,-0.08692565989908184
-0.07618618753654477,-0.12358092467838518,-0.107903402257804
-0.06094156406825312,-0.10994619052305553,-0.11460827399559474
-0.036922418952514524,-0.0737136785492348,-0.09325525896498131
-0.017371780231309093,-0.027857914732099833,-0.05370151934764115
-0.007341645216803248,0.012170794277599515,-0.015123488677218298
-0.002060683114173145,0.03926803436734938,0.01281556174508697
-0.0013664027817993972,0.05011841228464329,0.027488723216035738
0.001491964118505288,0.05191245625244982,0.033699485935836306
0.01712804351888001,0.05926086034458538,0.040360575861906396
0.03775703254355956,0.07524220400980597,0.050805665229546826
0.04845929000749106,0.08709724654907153,0.06290820889804037
0.05042395562888911,0.08541802139520462,0.07530471615951542
0.057396302796557386,0.07834948816204688,0.08601875094201127
0.07398517116370033,0.07658414889772526,0.08751984162957636
0.08859460198747984,0.07647650625965687,0.07595518879079363
0.09277505590368773,0.07216362456104995,0.060612791054972096
0.08987237323748684,0.06818802312839069,0.05015519259826862
0.08597258583862154,0.07071403703506228,0.04410704803628761
0.08896390003661481,0.07740940912291626,0.04208683015260625
0.10317448896732855,0.08185146198720523,0.04805366563567749
0.11808674419139872,0.08272695544349482,0.06337104519337294
0.11462272849051268,0.07592394071757246,0.07302180740551019
0.08412609559294668,0.05029781668142394,0.056372209862600706
0.03749852390916508,0.007642627302855828,0.017275051996061594
-0.008323978027502274,-0.03298888048002652,-0.02296043297521438
-0.046184414024819626,-0.05570865328832844,-0.053301228497623795
-0.06932462978361699,-0.057883034577309964,-0.0689563534600214
-0.06577198255093855,-0.044520995105086905,-0.0604376638080895
-0.03413052570105413,-0.018327953175111534,-0.024211341881518623
0.008959170672014427,0.01744528354295072,0.02456785091981533
0.030673895961150794,0.039404381708902675,0.0535701739124792
0.010074450780402042,0.021923217286595825,0.04464493886599843
-0.032165860079656085,-0.01904557076223415,0.015354906824884582
-0.06870420906107023,-0.0508360298717659,-0.014379197877967273
-0.09528628263780554,-0.07109437435623726,-0.04521410241836686
-0.11030932727661621,-0.09040546362570678,-0.0786571520284108
-0.10556754032572317,-0.10339434195262608,-0.10446340276546733
-0.07965020323743081,-0.09636168959882446,-0.10703402056792255
-0.051288113063864944,-0.07039828529672833,-0.08607504184279496
-0.040903451922189527,-0.046250453490052405,-0.06682355377477266
-0.04280164389474328,-0.04244708027830255,-0.0713143167484049
-0.042269854703988925,-0.056088990609503425,-0.0927486408579281
-0.03443335010134481,-0.06623610329141717,-0.10335009383885656
-0.02073239247843734,-0.0584427762952656,-0.08456769661069835
-0.013656641857011273,-0.037926089479430096,-0.05112464700065441
-0.022239128518908028,-0.01805525849200494,-0.028483195796547612
-0.03467708681377389,-0.009831360943579797,-0.02029599700478634
-0.04025348735571197,-0.012809473930138641,-0.017368870164034413
-0.038237120007435024,-0.012988878326919294,-0.012221380014592454
-0.0252747584827975,0.0004879799592433768,-0.001457308875844443
-0.0054508392052321905,0.020473629760608146,0.010976725652819732
0.008154100924900187,0.03054180450793841,0.019063851732076663
0.010945994176360578,0.02462145941417685,0.02168450589078405
0.00691325947980668,0.01207032781540235,0.023291923835385003
0.004328173135861875,0.006185863600996924,0.028389377628574793
0.010561924205260207,0.009357733336078873,0.03307403148268418
0.01516337789748196,0.010821673213809004,0.028195486748097635
0.0037299102962632196,0.0024686044997017887,0.012990688991969562
-0.011559028937924631,-0.005956225973117688,0.00018763633594563644
-0.008885311062187432,0.001047721677199015,0.000262690870323891
0.008929626828083629,0.018119844074845976,0.008994035036327506
0.0173126925434475,0.021829927000269887,0.015486252260046528
0.0003471401661868739,0.000832436401062231,0.010545162080144768
-0.02647128416199481,-0.027814857676872477,-0.005078690159595226
-0.034189613388915734,-0.037337643057989554,-0.016443197573369272
-0.016167868591129085,-0.02391819417879669,-0.012452798162258739
0.01606446513737129,-0.0008754934562895878,0.005016144714280015
0.04752127296268823,0.02343739039542454,0.02760130501760312
0.06300963314340896,0.04332974991046337,0.04530166604180816
0.06728610455239194,0.06133477517136973,0.061444645477664414
0.07534418798451703,0.08356656802042828,0.08427998756224837
0.0850197968718533,0.10107643714622004,0.10305613024587505
0.08691798884440707,0.10280589553118553,0.10388798466856737
0.07784064279666945,0.09481163561063963,0.09432478607987144
0.062211949357277425,0.0880229732364597,0.08524318742010263
0.04656848399592,0.07689272446018798,0.06692988103180852
0.03256470197272185,0.051869399197222464,0.033042758760026575
0.023516899768915033,0.022368140190611847,0.0023954905555726254
0.02422595202325418,0.0034589167699309946,-0.005441453742423457
0.02847287958830636,-0.003308217076635246,0.006861235351078772
0.02101305899577992,-0.008740582211153427,0.01699359749214314
-0.005251418258699305,-0.029687839579262496,0.0018388360922672372
-0.03369475400307487,-0.06222462097940177,-0.031554177161524526
-0.03818541828055613,-0.07357015503181027,-0.04719679303485909
-0.023066356148970367,-0.05593829091620768,-0.03366195866864718
-0.018531376105592908,-0.04182275297750588,-0.020008287956336367
-0.03396064859845205,-0.04910657148680041,-0.02447403275184251
-0.050054657579754136,-0.06004306351454903,-0.033943413172565634
-0.047787167558065405,-0.05250807884976159,-0.03154166807246148
-0.030001773511725144,-0.029415144896155904,-0.016705888443693164
-0.021057374761676118,-0.014768569942983374,-0.0062420354424581725
-0.03619120881522728,-0.021219952051215664,-0.014179052452958594
-0.06038761699455066,-0.037208471892307485,-0.03186064984356907
-0.0690661211492225,-0.04148547271155825,-0.039165957856385845
-0.05562367216070952,-0.020868319433525583,-0.026913305119135787
-0.028110967500154085,0.01778256380889835,0.0010882907484846913
0.008102399198021292,0.055486191836320434,0.03257366792016249
0.0438578363152693,0.07542878458245784,0.05046791982484468
0.070528541423797,0.08344457303061743,0.05774195511500385
0.0998360346031484,0.10871188827320463,0.07751882492367393
0.14695107971178817,0.15725154186617818,0.11362005595961439
0.2019838749938817,0.1995766271546699,0.14730703280638766
0.23350715646804296,0.20851814229021765,0.16298717594691134
0.2208476193436961,0.1795048632428504,0.15629481329818365
0.1770119409113749,0.1263652809164209,0.12923139911029133
0.1303695973056279,0.06887693601202839,0.08558093282480478
0.09212509133721017,0.021715108186330268,0.035832285621085036
0.05571968965348461,-0.008597058693728904,-0.0016136724891324735
0.022896479046368278,-0.021679227306974136,-0.019457888037562498
0.008863153179239334,-0.017194117387457807,-0.02578748710346197
0.01398901010123275,0.0011553643152674069,-0.02312930567756545
0.011263590498616654,0.009594547139829336,-0.014867052351425927
-0.024262881828167677,-0.018528886099505867,-0.021997233117360113
-0.08795940934296768,-0.07444564848809987,-0.0555153372617823
-0.14738685140976743,-0.12228921302156448,-0.09234835000791074
-0.16843684021046085,-0.13658415535704693,-0.10791591134686704
-0.15108721786209983,-0.12106926312345603,-0.10711532964683232
-0.12601188032583524,-0.10030141015212761,-0.1057831116616183
-0.1090684858315227,-0.09130248560961005,-0.10814732949453332
-0.08705832210307836,-0.08621457691691072,-0.1069589660335443
-0.0545674797401835,-0.07082167967313067,-0.09384944069547582
-0.02980235256519226,-0.0474847557399033,-0.07307184376176235
-0.022047093533357844,-0.02740581565221259,-0.055171337312548634
-0.016980324299226024,-0.014467170556391877,-0.03977890322047493
-0.004313401213896476,-0.0053677795516771445,-0.02374850558618605
0.0017061569870035717,-0.00673125296721011,-0.01802559733984414
-0.022017549689427044,-0.03468963416150711,-0.03550079476091442
-0.07418459211023322,-0.08194475227353118,-0.06886253529204857
-0.12465286350501853,-0.11819879277496557,-0.0997412216441688
-0.14158887203834836,-0.12346610586444556,-0.11361380141508287
-0.1183969545526721,-0.09910298878163284,-0.10240565761459684
-0.07671797672729913,-0.0613275989954985,-0.07147068036169292
-0.034898665643254875,-0.02417653651016083,-0.03395592226162868
0.0061672774205540366,0.00993900358164819,0.00412174484627248
0.04452257280371225,0.0389164017496593,0.04226821194402037
0.07164382153218461,0.05834948600893966,0.07431024357900355
0.07868264234869718,0.06697524940615347,0.08875824144681756
0.06667306979082789,0.06442770697186818,0.08024580633941719
0.050113745267615736,0.054589169852417165,0.060844209202638375
0.039345014154839944,0.045891644696491096,0.049010610949000236
0.03099887824438957,0.036017226697683945,0.04019170315955532
0.017600745021772776,0.014825979349953184,0.0211090877938841
0.0013885606647474956,-0.008589882517857677,0.006548508124502712
-0.008294434183571477,-0.01534984018855269,0.010770325683279533
-0.014077641633025141,-0.014302118511353675,0.013140798060726072
-0.021182936098382007,-0.02274847751178683,0.0006942544429988549
-0.022645356372956497,-0.031180484160477532,-0.007655562506581967
-0.019602340448084326,-0.030656623321878025,-0.0035463267493725287
-0.021869830469773057,-0.030563333035552087,-0.0001626181578195516
-0.02780814309986341,-0.03476139592021937,-0.004071708490020311
-0.03045231713166981,-0.036182278742722146,-0.008499926018337331
-0.027778599255932613,-0.02668102188921875,-0.0023517087438519766
-0.02298511057816067,-0.006925009715733215,0.015217306845191115
-0.017888797500098055,0.01147470521809058,0.028483195796547612
-0.008346135910450372,0.021521351437807163,0.03057846821460722
0.000864157434975835,0.024183712686032057,0.029984286484112704
-0.0025038407731351117,0.0182633675922705,0.021484360465775374
-0.013538466481288083,0.004363114929705487,-0.002245381486816116
-0.018154692095475235,-0.01268030276445657,-0.027476214126972695
-0.01797004307090775,-0.027549339169637112,-0.040398103129095524
-0.020835795932195134,-0.03421600655400619,-0.04191170290572366
-0.02358337341775933,-0.030620742442521894,-0.03834035797822505
-0.022859549241454783,-0.02215285491447506,-0.037139485428172976
-0.02288170712440288,-0.016175100413743697,-0.042499630091686655
-0.02062898902467955,-0.011431648162863224,-0.04557686600119509
-0.010576696127225605,-0.0012917116568207034,-0.03620755829297631
-3.692980491349722e-05,0.011094367896915596,-0.019126397177391875
0.003633892803488127,0.015787586916697485,-0.006054399106512536
0.002319191748567626,0.011331181700666059,-0.0061169445518277485
-0.0014033325867128946,0.004140653477697476,-0.01863854270393322
-0.006987119089633675,-0.004463581391902652,-0.03262370427641466
-0.01143346760121874,-0.013060640085631556,-0.03909090332200759
-0.010052292897453944,-0.014345175566581034,-0.037083194527389285
-0.004734400989910344,-0.008123431086227978,-0.029940504672392055
0.001543665845384184,0.003035522393528653,-0.016155488524919298
0.01569516708823632,0.022447078125195332,0.008512435107400374
0.03913082128634166,0.046523148173158994,0.03531315842496878
0.0558969527170694,0.062124154517204606,0.05009890169748493
0.056657706698287444,0.06409760288179178,0.053582683001542245
0.05385104152486165,0.061205604005687655,0.056622391643861555
0.06392549230526369,0.06752063877236665,0.06971315334833546
0.08725035708862854,0.09016864982195631,0.09555693135258111
0.10824125820146037,0.11468246659806478,0.1207002003692964
0.11373641317258876,0.12139936721353244,0.13011328988923582
0.10409034812918327,0.11494080892942891,0.1280055083821132
0.09081039028228967,0.11134554481794462,0.12908129004153482
0.0863344979267738,0.11346969287582756,0.1365617253012342
0.09416361656843522,0.11865089185485282,0.1434917606421597
0.10934176638788258,0.12569789656039687,0.14408594237265424
0.11516190364224975,0.12189452334864703,0.1306636898080097
0.09428179194415841,0.09514891587658725,0.0974958401573527
0.05512142681388596,0.0591029844754184,0.054495846503144346
0.015547447868582332,0.02933620696157242,0.01822574276485282
-0.027874616748707705,-0.006630786505012943,-0.014097743374048817
-0.081267728692642,-0.062124154517204606,-0.060062391136198226
-0.12793961614231977,-0.12030141230523483,-0.11753540083634667
-0.1381839440253239,-0.14744888562608327,-0.15538164979658153
-0.10293813821588216,-0.1299031356209354,-0.14785117818062998
-0.056000356170827194,-0.09334769573290949,-0.11068042002979941
-0.032143702196707986,-0.06576965185978748,-0.07751257037914241
-0.02089488362005673,-0.0417438150429224,-0.04969235630293605
-0.004896892131529732,-0.012996054502790521,-0.01658705209759426
0.004032734696553897,0.007412989674976592,0.006292071798710342
-0.00678769814310079,0.006652315032626622,0.0033399267798323285
-0.026685477030493093,-0.007900969634219969,-0.013484798009959739
-0.030747755570977787,-0.012658774236842892,-0.020327269727443947
-0.011876625260180707,0.0020236815956857683,-0.009757089469173095
0.007090522543391467,0.016878365649123858,0.00031272722657606076
0.007356417138768647,0.013397920351579183,-0.004440726617380063
-0.003907173359848006,-0.0038392540911059794,-0.012546616330231557
-0.0159832195665616,-0.020975962071593978,-0.01250908906304243
-0.0346475429698431,-0.03400789745374063,-0.01307825261541086
-0.06924338421280729,-0.05369932404438513,-0.029171195695014945
-0.10762083747891361,-0.08232508959470616,-0.05894908220958745
-0.11806458630845063,-0.095299615569883,-0.07965162460892267
-0.09284152955253203,-0.077337647364204,-0.07933264283781509
-0.06140687961016318,-0.051855046845480014,-0.07318442556332973
-0.04299367888029347,-0.04182275297750588,-0.06811824449279755
-0.028664914573856545,-0.03555795144192547,-0.05071184706157401
-0.01010399462433284,-0.020997490599207656,-0.021915924038450336
0.0075927678902150296,-0.009171152763426994,0.0017700361024205037
0.016692271820900745,-0.005827054807435617,0.014016434295139043
0.020038112146063596,-0.0008683172804183617,0.02203476038454924
0.027911546553621203,0.012823826281881093,0.03408726769679062
0.04298629291931077,0.032658776389950114,0.050217738043583836
0.06233012473300061,0.05556512977090392,0.07043868051399192
0.08156316713194997,0.07708648120871109,0.0915415137633445
0.08881618081696083,0.08332257804080659,0.09571954951040067
0.07270001395271064,0.06301400032523664,0.07289046197034824
0.039581364906286325,0.026106927819520658,0.039522466894682556
0.009343240643114798,-0.007908145810091194,0.012246398192718538
-0.01664057009402185,-0.0384499503180296,-0.017631561034358305
-0.053947059017636745,-0.07582347425537528,-0.060994318271394884
-0.0917779511710233,-0.11029064696487438,-0.10384420285684673
-0.09779750937192334,-0.11456764778412516,-0.11846732797154333
-0.06340108907549204,-0.07536419899961681,-0.08870195054603387
-0.017113271596914614,-0.01759598323624647,-0.03537570387028399
0.007341645216803248,0.016655904197115847,-0.0008318544226923216
0.008198416690796384,0.0171654126839729,0.006098180918233185
0.006588277196567905,0.009680661250284049,0.012171343658340284
0.01610139494228479,0.018026553788520038,0.0346126494374384
0.03532705138025145,0.041019021279928555,0.06739271732714108
0.055978198287879095,0.06413348376114791,0.100091476137934
0.06442035169110456,0.07357015503181027,0.12153830933652024
0.04773546583118651,0.05597417179556381,0.11161234716499607
0.012482274060762062,0.014416937325293293,0.06464697227780328
-0.017120657557897313,-0.02114101411663218,0.011402034680963175
-0.02568098633684597,-0.028855403178200265,-0.01704363384839531
-0.024366285281925467,-0.02536060552891314,-0.029627777445815993
-0.02901944070102612,-0.03362756013256564,-0.046671411294211304
-0.03517194619961476,-0.04833872066857921,-0.06083795465810685
-0.038532558446743005,-0.05695013171405056,-0.061757372704240476
-0.04688608031817608,-0.06119842782981643,-0.060356354729179724
-0.06322382601190725,-0.06884105513267226,-0.06667969925054767
-0.08329886796288434,-0.08251167016735804,-0.0806023153777139
-0.0983292985626777,-0.09426624624442644,-0.09777104011673964
-0.09786398302076764,-0.09204163172434633,-0.10759067503122793
-0.08029278184292567,-0.07409401587040979,-0.10475736635844883
-0.05227783183554667,-0.04997488876721876,-0.0932802771431074
-0.018671709364264197,-0.0269967736275527,-0.07468551625089483
0.01343506302753029,-0.006515967691073325,-0.048622829188045925
0.03352487690047278,0.01156799550441652,-0.016249306692892117
0.04376920478347691,0.028884107881685172,0.017781670103114815
0.053023813894799314,0.04454252363270059,0.042455848279966006
0.05759572374309027,0.05552924889154779,0.053782828426550924
0.053319252334107295,0.061564412799248965,0.056084500814150735
0.051709112839878814,0.06118407547807398,0.04685279308562542
0.06454591302781044,0.05463222690764452,0.0306910500161746
0.08431074461751416,0.05105131514790268,0.026769450594910798
0.09377216063635216,0.05801938191886326,0.04071708490020311
0.08617939274613712,0.06841766075626991,0.0558093008547638
0.0679139112359214,0.06930033038843074,0.05605322809149313
0.04823032521702737,0.05708647905560386,0.04216813923151603
0.02915238799871471,0.03421600655400619,0.022059778562675325
0.006891101596858582,0.005274489265351205,0.001257163450835764
-0.015576991712513128,-0.01631862393116822,-0.010782834772342573
-0.02874616014466624,-0.02145676585496613,-0.010488871179361077
-0.030644352117219997,-0.020165054198145425,-0.009713307657452446
-0.022815233475558586,-0.019332617797083194,-0.010976725652819732
-0.004601453692221754,-0.010010765340360451,-0.0004753453843956123
0.013900378569440356,0.007671332006340732,0.02054617878604719
0.015473588258755337,0.0166702565488583,0.03034079552240941
-0.004594067731239055,0.004312881698606904,0.017181233828088775
-0.03420438531088113,-0.022554720763263723,-0.01065774388171215
-0.05479644453064718,-0.04149982506330071,-0.037364649031307734
-0.052735761416474035,-0.03752422363064143,-0.05126224698034788
-0.02808880961720599,-0.019842126283940248,-0.051456137860825035
0.0038924014378826075,-0.0053103701447073355,-0.03919097603451193
0.022697058099835393,0.0020667386509131253,-0.017181233828088775
0.019114867023226165,0.005669178938268642,0.0016199270336639947
0.0045128221604293604,0.006307858590807768,0.007442907992510245
-0.0034935595448168373,0.006968066770960572,0.006060653651044057
-0.0012925431719724028,0.011510586097446712,0.006248289986989694
0.006241137030381031,0.017344817080753555,0.009519416776975289
0.018302411315129226,0.021901688758982147,0.014529306946723781
0.02991314197993275,0.0260351660608084,0.02064625149855153
0.034012350325330946,0.03157517383339497,0.028589523053583473
0.03522364792649365,0.040983140400572424,0.03743970356568599
0.041080714985774314,0.052264088870139905,0.042505884636218176
0.04694516800603767,0.057136712286702446,0.04113613938381503
0.04028303119964277,0.046688200218197196,0.034206104042889526
0.016130938786215587,0.017746682929542217,0.020408578806353724
-0.0172831486995167,-0.02410477475144857,-0.0017012361125737705
-0.047055957420778165,-0.06418371699224651,-0.02506821448233703
-0.06851217407552004,-0.08636527661020647,-0.03806515801883811
-0.08310683297733415,-0.0854395499228183,-0.03649526734142629
-0.08444369191520275,-0.0671761823305478,-0.026869523307415138
-0.0612222305855957,-0.03934697230193287,-0.019332797146932076
-0.01704679794807032,-0.010922139676006169,-0.017187488372620296
0.023841882052153807,0.007893793458348742,-0.016874761146044238
0.0399654348773867,0.014323647038967354,-0.015179779578001987
0.028288230563738873,0.009357733336078873,-0.017906760993745236
-0.004453734472567765,-0.008388949593463346,-0.035444503860130726
-0.03654573494239685,-0.02627197986455886,-0.05514006458989103
-0.035585560014645926,-0.020014354504849674,-0.04753453843956123
0.0019203498555018556,0.011905275770364149,-0.010926689296567562
0.045239011019034096,0.043982781914744945,0.02611272341910107
0.07043252393102191,0.057280235804126965,0.04315010272296486
0.07979792245708481,0.05779692046685525,0.04565817508010487
0.08213188612761782,0.05652673733764822,0.045883338683239634
0.0745982059252644,0.04922139030074002,0.044982684270700575
0.055261760072557245,0.03412271626768024,0.04303752092139748
0.03541568291204384,0.025080734669935323,0.045839556871518986
0.02483898678481823,0.030261933648960588,0.05510879186723342
0.019617112370049726,0.04230355676087803,0.06428420869497505
0.00836090783241577,0.04683172373562172,0.062489154414428455
-0.017068955831018418,0.028912812585170075,0.04099853940412156
-0.04976660510142886,-0.01229278926741036,0.0004941090179901759
-0.07203527746426769,-0.05544313478109308,-0.04426341164957564
-0.07269262799172793,-0.07612487364196678,-0.07053249868196473
-0.0545083920523219,-0.0692357448055897,-0.06761788093027585
-0.033613508432265175,-0.04777180277475235,-0.047609592973939484
-0.024927618316610625,-0.028783641419488006,-0.028795923023123674
-0.029617703540624773,-0.024334412379327805,-0.01977686980867008
-0.04004668044819639,-0.03227843906877513,-0.01997076068914724
-0.043326047124514946,-0.036605673119124486,-0.01899505174222993
-0.033214666539199404,-0.029077864630208276,-0.008162180613635186
-0.019218270476983955,-0.016950127407836118,0.005497744643207148
-0.008065469393107793,-0.006250449183837959,0.013766252513878193
0.0030947176517510675,0.0018586295506475676,0.01776290646952025
0.014661132550658398,0.006702548263725205,0.019795633442264645
0.024417987008804366,0.01090061114839249,0.021972214939234028
0.02991314197993275,0.01565123957514419,0.02445526911824795
0.028258686719808076,0.018270543768141724,0.02506821448233703
0.024189022218340683,0.021872984055497244,0.027663850462918332
0.028007564046396295,0.030383928638771433,0.038909521530593474
0.03812633059269453,0.037581633037611244,0.05447708286954978
0.04459643241353925,0.03978471903007766,0.06292697253163494
0.04724060644534565,0.04379620134209307,0.06330224520352622
0.05353344520260558,0.05345533406476344,0.06390893602308377
0.06498168472578972,0.06639397916058415,0.07060129867181147
0.07339429428508439,0.0786580637245096,0.07860086112762711
0.0745021884324893,0.08523144082255274,0.07825060663386192
0.07305454007988021,0.08304270718182877,0.06913148070690399
0.06723440282551305,0.07174740636051884,0.05485235554144105
0.05145799016646703,0.05545748713283553,0.04049192129706834
0.029780194682244163,0.0397129572713654,0.02992174103879749
0.003006086119958674,0.018478652868407285,0.013003198081032605
-0.03416006954498493,-0.017933263502194097,-0.020571196964173276
-0.06538791257983818,-0.05461787455590207,-0.05456464649299108
-0.06295054545554737,-0.06241837772792488,-0.05883650040802007
-0.03389417494960775,-0.04075350277269319,-0.032160867981082086
-0.009764240419128666,-0.017789739984769574,-0.008556216919121023
-0.003944103164761504,-0.013196987427184852,-0.012121307302088115
-0.010539766322312108,-0.021722284362201492,-0.026994614198045563
-0.021212479942312807,-0.029006102871496017,-0.028089159491061777
-0.028650142651891145,-0.030061000724566255,-0.01863854270393322
-0.028812633793510536,-0.027714391214675314,-0.014904579618615054
-0.020289234819475376,-0.02054539151932041,-0.015479997715515007
-0.0018169464017440634,-0.0032795123731503414,-0.0077743988526808696
0.017615516943738176,0.01724435061855639,0.006654835381538573
0.024809442940887435,0.025468248166981535,0.013472288920896696
0.022017549689427044,0.018012201436777585,0.00519752650569413
0.020444340000112065,0.007176175871226129,-0.010313743932478484
0.023347022666312944,0.00441334816080407,-0.01750021559919636
0.022778303670645088,0.004858271064820089,-0.013922616127166224
0.012290239075211876,0.0009400790391306229,-0.01245905270679026
-0.0015362798844014845,-0.003824901739363527,-0.01595534309991062
-0.008626802427792951,-0.007197704398839808,-0.014191561542021636
-0.008427381481260066,-0.009817008591837345,-0.004953599268964802
-0.007939908056401903,-0.011682814318356138,0.0025956359805813043
-0.016330359732748472,-0.01870829049628652,-0.001257163450835764
-0.03543784079499194,-0.0352924329346901,-0.018469670001582148
-0.054892462023422274,-0.05245066944279178,-0.040410612218158566
-0.06495214088185892,-0.0564119185237086,-0.05296348309292165
-0.06405843960295228,-0.04911374766267163,-0.05238181045149017
-0.054368058793650614,-0.042404023223075196,-0.04938588362089151
-0.037505909870147784,-0.03140294561248554,-0.04398195714565718
-0.015990605527544298,-0.006530320042815778,-0.028658323043430207
0.0035969629985746297,0.019942592746137414,-0.013578616177932558
0.011943098909025002,0.028101904711721522,-0.010370034833262175
0.0035083314667822365,0.012787945402524963,-0.014460506956877048
-0.010849976683585484,-0.011417295811120772,-0.014904579618615054
-0.011684590274630521,-0.024535345303722138,-0.009594471311353544
-0.0024299811633081174,-0.026501617492438095,-0.00968203493479484
-0.002237946177757932,-0.028690351133162068,-0.017625306489826784
-0.005665032073730474,-0.026099751643649433,-0.016712142988224685
0.0066621368063948996,-0.007477575257817627,0.001138327104736861
0.028266072680790774,0.019138861048560087,0.023091778410376324
0.036767313771877835,0.033103699293966136,0.03565090382967093
0.024159478374409883,0.025432367287625404,0.035444503860130726
-0.0008198416690796383,0.007786150820280351,0.02534341444172396
-0.025496337312278485,-0.0050233231098582905,0.011627198284097938
-0.043606713641857524,-0.011941156649720279,0.0002939635929814971
-0.055682759848571114,-0.01800502526090636,-0.007937017010500421
-0.0598484418428136,-0.025468248166981535,-0.01653076119681057
-0.049552412232930575,-0.030958022708469524,-0.02302923296506111
-0.026522985888873706,-0.026006461357323492,-0.018200724586726735
-0.002754963446546893,-0.009594547139829336,-0.0007693089773771094
0.01291065979775863,0.008719053683539747,0.019063851732076663
0.019343831813689847,0.020904200312881715,0.03089119544118328
0.021891988352721155,0.02829566146024463,0.03331795871941351
0.030925018634562575,0.039504848171099845,0.03553206748357202
0.045660010795047966,0.050304992857295165,0.04338152087063114
0.04481062528203753,0.03987083314053238,0.04216813923151603
0.018560919949523705,0.007047004705544059,0.016080433990541043
-0.016684885859918046,-0.02686760246187063,-0.0233794874588263
-0.04601453692221754,-0.05065662547498525,-0.053588937546073766
-0.06265510701623939,-0.06058127670489098,-0.06427795415044352
-0.06042454679946416,-0.05186222302135124,-0.054983700976602996
-0.03641278764470826,-0.023717261254402357,-0.026444214279271697
0.0010709643424914195,0.016354504810524348,0.012928143546654352
0.030164264653344534,0.04630068672115099,0.04186792109400301
0.03868027766639699,0.04983854142566547,0.04844770194116333
0.03735819065049379,0.03977036667833521,0.044150829848008256
0.035290121575337945,0.03582346994916084,0.042149375597921465
0.027815529060846108,0.035335489989917465,0.0405669758314466
0.013604940130132378,0.02347327127478067,0.03212334071389296
-0.0033975420520417445,-0.0032436314937942107,0.011195634711422974
-0.023169759602728157,-0.035349842341659915,-0.019276506246148385
-0.040526767912071854,-0.056498032634163316,-0.039966539556420565
-0.04640599285430061,-0.05418012782775728,-0.03801512166258594
-0.04227724066497162,-0.03569429878347877,-0.027044650554297733
-0.03409359589614064,-0.02022963978098646,-0.02698835965351404
-0.02354644361284583,-0.01533548783681024,-0.037877521682892476
-0.007134838309287663,-0.0076569796545982805,-0.03470646760541122
0.016426377225523564,0.01629709540355454,-0.00040029085001735775
0.03481003411146248,0.043595268417698736,0.03973512140875428
0.03803769906090214,0.05222103181491254,0.05190646506709456
0.03231357929931007,0.041521353590914384,0.03865933974933263
0.02678149452326819,0.025798352257057934,0.02111534233841562
0.02448446065764866,0.0146106940738164,0.00875010779959818
0.018036516719752045,0.004528166974743688,-0.0036839267290659956
-0.003486173583834138,-0.014158594993929154,-0.02260392393691767
-0.033185122695268604,-0.04027269898932104,-0.043544139028450696
-0.05242555105520066,-0.06058127670489098,-0.061044354627647054
-0.05177558648872311,-0.06356656586732105,-0.07177089849920594
-0.03652357705944875,-0.04834589684445043,-0.06814951721545516
-0.02208402333827134,-0.028489418208767735,-0.05243184680774234
-0.016315587810783072,-0.01740940266359459,-0.03535068569215791
-0.01076134515179309,-0.011001077610589657,-0.021446833198586247
0.0015215079624360855,0.00018658057265187936,-0.013678688890436897
0.01130052030353015,0.01385001943146643,-0.011871125520827265
0.007275171567958953,0.02071044356435861,-0.007580507972203712
-0.0052366463367339066,0.015450306650749857,-0.002013963339149831
-0.011108485317979965,-0.00014352351742452258,-0.007561744338609149
-0.0039145593208307055,-0.014459994380520652,-0.01714370656089965
0.010554538244277507,-0.011704342845969818,-0.009669525845731799
0.025592354805053577,0.008790815442252008,0.014491779679534654
0.03746159410425159,0.029723720458618628,0.03482530395151012
0.04436008166209287,0.0379834988863999,0.03905337605481846
0.0505125871606815,0.03839971708693102,0.03530064933590574
0.05906552997864746,0.04162899622898278,0.03579475835389591
0.0625295456795335,0.04571941647558167,0.03722079450708275
0.051923305708377096,0.04109078303864082,0.030866177263057196
0.031168755346991657,0.027470401235053624,0.019445378948499455
0.011810151611336412,0.01162540491138633,0.009025307758985112
-0.00014033325867128944,0.0017294583849654973,0.000612945364089079
-0.005118470961010715,0.0006027987731829948,-0.007830689753464562
-0.0172905346604994,-0.009809832415966118,-0.02229745125487313
-0.053289708490176495,-0.04633656760050712,-0.04800362927942532
-0.09674131695139733,-0.0900825357115016,-0.07816929755495214
-0.11548688592548852,-0.11080733162760266,-0.09796493099721679
-0.1025466822837991,-0.10203804471296433,-0.09810878552144177
-0.07124497963911884,-0.07267313304790701,-0.07556740702983931
-0.03970692624299221,-0.03496950502048493,-0.038127703464153326
-0.022128339104167536,-0.0072838185092945215,-0.009150398649615537
-0.013508922637357285,2.152852761367839e-05,-0.0017700361024205037
-0.0014845781575225884,-0.002059562475041899,-0.0031585449884182133
0.008597258583862153,-0.0011768928428810852,-0.000756799888314067
0.005642874190782376,-0.0004162182005311155,0.0031335268102921287
-0.004291243330948377,-0.004822390185463959,0.0036776721845344744
-0.005975242435003851,-0.009099391004714732,-6.879998984673336e-05
-0.0018243323627267628,-0.00940079039130623,-0.006754908094042912
-0.0053178919075436,-0.011546466976802842,-0.012183852747403327
-0.011728906040526718,-0.015522068409462119,-0.011502107393467515
-0.011071555513066468,-0.014660927304914983,-0.007011344419835282
-0.009527889667682284,-0.01077143998271042,-0.005053671981469141
-0.012356712724056172,-0.008166488141455335,-0.006623562658880967
-0.013553238403253481,-0.00391101584981824,-0.006467199045592936
-0.008767135686464242,0.006128454194027115,0.0026894541485541225
-0.0018981919725537574,0.020846790905911905,0.019070106276608184
0.001794788518795965,0.03687119162635985,0.03326166781862982
0.005074155195114519,0.0514675333484338,0.043888138977684364
0.010200012117107934,0.060344462901140525,0.05549031908365622
0.013664027817993973,0.06251884419012205,0.06941918975535397
0.020917041503004826,0.06411195523353425,0.08215344242153115
0.03825189192940043,0.06348762793273757,0.08307286046766478
0.05504018124307626,0.048403306251420246,0.06483460861374891
0.05743323260147088,0.02013634949466052,0.03686428546878604
0.04828202694390627,-0.00011481881393961807,0.01534239773582154
0.03795645349009245,-0.00021528527613678389,0.006210762719800566
0.0266042314596834,0.004549695502357366,0.004359417538470287
0.013516308598339985,0.002604951841255085,0.006892508073736378
0.009646065043405474,0.011123072600400501,0.02317934203381762
0.026294021098410024,0.0425690752681134,0.05782326419391363
0.052107954732944585,0.07708648120871109,0.08984027765077073
0.06019558200900048,0.09099391004714733,0.09483140418692466
0.04825986906095817,0.08605670104774374,0.07688711592599029
0.037816120231421155,0.0775026994092422,0.057629373313436476
0.03964045259414792,0.07176893488813252,0.047972356556767716
0.04943423685720739,0.06277001034561495,0.03889075789699891
0.06201991437172724,0.046609262283613714,0.01967679709616574
0.07195403189345799,0.029451025775512035,0.0005879271859629942
0.06934678766656509,0.015342664012681464,-0.00355258129390405
0.050076815462702234,0.0019590960128447335,0.0020452360618074374
0.01943246334548224,-0.014158594993929154,0.004440726617380063
-0.015687781127253622,-0.03676354898829146,-0.0038277812532909834
-0.046073624610079134,-0.06282024357671354,-0.025862541637840224
-0.06142903749311128,-0.07785433202693227,-0.051205956079564185
-0.05795763583124254,-0.07380696883556075,-0.06376508149885879
-0.04353285403203053,-0.06487262987588421,-0.06725511734744762
-0.032527772167808354,-0.06383926055042764,-0.07189598938983637
-0.02808142365622329,-0.060523867297921176,-0.07038238961320822
-0.01890067415472788,-0.04389666780429023,-0.05308231943902055
0.0009232451228374306,-0.018220310537043143,-0.025524796233138077
0.018169464017440635,0.0010979549082975979,-0.005159999238505002
0.012666923085329547,-0.0052529607377375265,-0.008843925967570998
-0.013132238627239614,-0.03272336197279115,-0.03166675896309191
-0.03286014041202983,-0.05016864551574187,-0.04812872017005575
-0.032453912557981364,-0.04297811729277329,-0.04507024789414187
-0.021249409747226302,-0.02348762362652312,-0.029358832030960583
-0.010827818800637386,-0.005755293048723356,-0.010051053062154591
-0.006019558200900048,0.00177969161606408,0.0034212358587421047
-0.0011669818352665123,0.0004664514316296984,0.005948071849476675
0.010709643424914195,0.0027987085897781907,0.0058917809486929845
0.0226158125290257,0.014589165546202721,0.013478543465428218
0.029314879140334097,0.02777897679751635,0.026944577841793393
0.03548954252187083,0.033993545101998174,0.03818399436493702
0.04367318729070182,0.03480445297544673,0.04633992043404068
0.05091142905374727,0.03563688937650896,0.05337002848747052
0.05117732364912445,0.03647650195344242,0.055033737332855166
0.044079415144750285,0.03453893446821136,0.050405374379529466
0.03486912179932408,0.02770003886293286,0.04178661201509323
0.022778303670645088,0.012127737222372158,0.024380214583869696
0.004667927341066049,-0.010599211761800993,-0.0017137452016368127
-0.01542927249285914,-0.02805167148062294,-0.02265396029316984
-0.036767313771877835,-0.03721564806817871,-0.03296770422564832
-0.06390333442231559,-0.04857553447232967,-0.045038975171484266
-0.08626802427792951,-0.0565482658652619,-0.05905540946662331
-0.0838011133097079,-0.043595268417698736,-0.05370777389217267
-0.058341705802342915,-0.01534984018855269,-0.025699923480020672
-0.029314879140334097,0.00632221094255022,-0.0012008725500520733
-0.0018908060115710578,0.01613204335851634,0.005779199147125602
0.02596903881517125,0.024578402358949494,0.010019780339496987
0.042713012362950886,0.03666308252609429,0.023867341932284954
0.04379874862740771,0.047082889891114636,0.04001032136814121
0.04632474728349092,0.052536783553246494,0.050011338074043635
0.059974003179519494,0.056792255844883587,0.0556904645086649
0.07083875178507038,0.06147112251292303,0.058924064031461366
0.07108987445848215,0.06371008938474558,0.059562027573676526
0.06800992872869649,0.05903122271670614,0.056622391643861555
0.056421355946841056,0.04314316933781149,0.04505148426054731
0.02410039068654829,0.01564406339927296,0.02445526911824795
-0.022069251416305943,-0.020975962071593978,-0.0007943271555031943
-0.06035068718963717,-0.05846430482287928,-0.028877232102033447
-0.07685830998597043,-0.08319340687512453,-0.05340755575465965
-0.0758907490972368,-0.08927162783805305,-0.06625439022240423
-0.0731357856506899,-0.08637245278607769,-0.07341584371099602
-0.08082457103368003,-0.08974525544555398,-0.08899591413901536
-0.09086947797015127,-0.09651956546799144,-0.10899169300628869
-0.08042572914061426,-0.08375314859308015,-0.10866645669064959
-0.04537195831672269,-0.04823107803051082,-0.07770020671508805
-0.011884011221163407,-0.020222463605115232,-0.03964755778531298
0.0006868943713910484,-0.012508074543547144,-0.01683097933432359
0.0009380170448028295,-0.004815214009592733,-0.0061419627299538326
-0.0048451904046508355,0.004822390185463959,-0.002533090535266092
-0.02472819737007774,-0.0025188377308003715,-0.008174689702698228
-0.05164263919103452,-0.01998564980136477,-0.016305597593675808
-0.05690882937169922,-0.021047723830306238,-0.012390252716943526
-0.029713721033399868,0.0006530320042815778,0.0048097447447398144
0.006529189508706309,0.0290850408060795,0.0209026878243439
0.026308793020375424,0.04710441841872831,0.0295402138223747
0.02703261719667997,0.04977395584282444,0.03627010373829152
0.02353905765186313,0.04513814623001235,0.04183039382681388
0.026700248952458493,0.040222465758222456,0.04231199375574102
0.031478965708265035,0.03176893058191808,0.03645148552970564
0.026803652406216287,0.014000719124762178,0.023404505636952386
0.011802765650353713,-0.008424830472819476,0.005591562811179966
-0.0045128221604293604,-0.022576249290877405,-0.008431126028490598
-0.01915918278912236,-0.029113745509564408,-0.016055415812414958
-0.03763147120685367,-0.04334410226220582,-0.027057159643360775
-0.05762526758702107,-0.06609975594986388,-0.046777738551247165
-0.06532143893099389,-0.08010047507462606,-0.06591664481770208
-0.05871838981246059,-0.07984213274326192,-0.07748755220101633
-0.05374763807110386,-0.07512020901999512,-0.08238486056919744
-0.054574865701166195,-0.06712594909944922,-0.07641177054159468
-0.0478831850508405,-0.049472556456232934,-0.056459773486042
-0.027357599479918743,-0.023265162174515113,-0.027826468620737885
-0.0005096313078062617,0.0033369217801201504,0.003064726820445395
0.022054479494340543,0.022088269331634026,0.030753595461489813
0.035135016394701256,0.03035522393528653,0.05004886534123276
0.042136907406300335,0.03327592751487556,0.059655845741649345
0.04900585112021082,0.039002515860114016,0.06429671778403809
0.05909507382257826,0.05314675850230072,0.06844348080843665
0.0744431007446277,0.07491209991972957,0.07387242546179706
0.09108367083864956,0.09644780370927918,0.08387344216769949
0.10267224362050498,0.11200575299809742,0.09630747669636366
0.10668282043411079,0.12180840923819232,0.10016653067231225
0.102376805181197,0.125733777439753,0.0907471866078413
0.09253131919125865,0.11819161659909436,0.07427897085634595
0.06755938510875183,0.08622892926865318,0.05012391987561102
0.008479083208138963,0.023925370354667914,0.005591562811179966
-0.0664588769223296,-0.04869752946214052,-0.05592188265633118
-0.10621750489220072,-0.09453894092753302,-0.09998514888089814
-0.08746454995712682,-0.09206316025196001,-0.0989406399441341
-0.036405401683725566,-0.05953355502769197,-0.06542879034424343
0.0003619120881522728,-0.03279512373150341,-0.031166395400570212
0.0011152801083876161,-0.02376749448550094,-0.012571634508357642
-0.014321378345454223,-0.0217509890656864,-0.0075492352495461065
-0.02209140929925404,-0.019519198369735074,-0.008055853356599325
-0.023804952247240312,-0.019705778942386953,-0.007555489794077628
-0.02687012605506058,-0.023745965957887263,-0.0063921445112146815
-0.029366580867212992,-0.02643703190959706,-0.010551416624676289
-0.032764122919254735,-0.02505202996645042,-0.021715778613441657
-0.04148694283982278,-0.02210262168337648,-0.030828649995868068
-0.05213011261589268,-0.01818442965768701,-0.027838977709800927
-0.05732982914771309,-0.01416577116980038,-0.016468215751495357
-0.054789058569664484,-0.011912451946235376,-0.006967562608114633
-0.043843064393303904,-0.006616434153270492,-0.0005378908297108244
-0.015636079400374724,0.00565482658652619,0.006135708185422311
0.02647867012297751,0.014553284666846591,0.010676507515306714
0.05367377846127686,0.008439182824561929,0.008593744186310148
0.05354083116358828,-0.005288841617093657,0.0033023995126432015
0.044138502832611885,-0.01138141493176464,0.0022641451204106797
0.03569634942938642,-0.0067671338465662405,0.007561744338609149
0.029196703764610907,0.006494439163459647,0.022835342084583956
0.03273457907532394,0.027025478331037602,0.047815992943479685
0.0452759408239476,0.04610692997262788,0.06893133528189531
0.05304597177774741,0.05665590850333029,0.07775024307134022
0.04885813190055683,0.06251166801425082,0.07808798847604237
0.037949067529109745,0.06386078907804132,0.0715832621632603
0.027815529060846108,0.05629709970976898,0.05638471895166375
0.025607126727018974,0.04940079469752068,0.03929730329154779
0.03306694731954542,0.05152494275540361,0.029221232051267115
0.032431754675033266,0.04633656760050712,0.020002033411804846
0.005797979371419064,0.014373880270065937,-0.003446254036868189
-0.036346313995863966,-0.03537854704514482,-0.04501395699335818
-0.06957575245702877,-0.07309652742430936,-0.08643155088109167
-0.08341704333860753,-0.08456405646652872,-0.10338762110604569
-0.0837346396608636,-0.08048798857167228,-0.09201060460320859
-0.07639299444406036,-0.07292429920339993,-0.06888755347017465
-0.06310565063618406,-0.06437029756489838,-0.05053671981469141
-0.04770592198725571,-0.052981706457262516,-0.03963504869624994
-0.03410098185712334,-0.03821313651427914,-0.031078831777128915
-0.02329532093943405,-0.022863296325726448,-0.022672723926764404
-0.016544552601246758,-0.01149623374570426,-0.016180506703045383
-0.013014063251516422,-0.006659491208497848,-0.014047707017796649
-0.00652180354772361,-0.004779333130236602,-0.015104725043623734
0.003020858041924073,-0.00042339437640234165,-0.014798252361579193
0.007489364436457237,0.005941873621375235,-0.012702979943519587
0.008316592066519576,0.011941156649720279,-0.011051780187197987
0.015879816112803806,0.019698602766515725,-0.006060653651044057
0.029750650838313363,0.02960890164467901,0.0035025449376518804
0.04159034629358058,0.0389164017496593,0.011414543770026217
0.049810920867325054,0.04831719214096553,0.01793177917187132
0.054397602637581415,0.05653391351351945,0.02563112349017394
0.05255849835288925,0.05855759510920522,0.02733861414727923
0.04543104600458429,0.05339792465779363,0.018819924495347334
0.03868027766639699,0.046559029052515126,0.010288725754352399
0.037683172933732564,0.04782203600585093,0.014022688839670564
0.04474415163319324,0.06043775318746646,0.03194195892247884
0.05478167260868178,0.07471834317120646,0.05460217376018021
0.05682758380088953,0.07755293264034079,0.06536624489892821
0.05284655083121453,0.0695658488956661,0.06325846339180556
0.05730767126476499,0.06910657363990763,0.0713143167484049
0.07061717295558939,0.08296376924724529,0.09698296750576796
0.07603846831689079,0.08935774194850776,0.11478965578700885
0.0626846508601702,0.0722856195508608,0.10735300233903013
0.042402802001677516,0.04665231933884107,0.09033438666876091
0.02887910744235483,0.029766777513845984,0.0801019518151922
0.01184708141624991,0.01457481319446027,0.06754282639589759
-0.019210884516001257,-0.011044134665817013,0.04134253935335523
-0.05304597177774741,-0.04200933355015776,0.007962035188626506
-0.07472376726197029,-0.06762828141043505,-0.024361450950275133
-0.08033709760882186,-0.08462146587349852,-0.05590937356726814
-0.06937633151049588,-0.0918694035034369,-0.0814279152558747
-0.04913879841789941,-0.09020453070131244,-0.09141016832818255
-0.043555011914978625,-0.08909939961714362,-0.08892711414916864
-0.06295054545554737,-0.09561536730821694,-0.08456769661069835
-0.08616462082417173,-0.10256908172743506,-0.08392347852395166
-0.09219156498605446,-0.1005166954282644,-0.08660042358344273
-0.07789973048453104,-0.08673126157963901,-0.08414864212708642
-0.05119948153207255,-0.06477216341368705,-0.06806195359201386
-0.027468388894659235,-0.04511661770239868,-0.046627629482490655
-0.013627098013080475,-0.030871908598014808,-0.030897449985714802
-0.002784507290477691,-0.014919269636279124,-0.016249306692892117
0.004320787174879175,-0.00038033732117498484,-0.00180130882507811
-0.0013737887427820968,0.0012630069533357989,-0.00048785447345865474
-0.01755642925587658,-0.009422318918919908,-0.013516070732617345
-0.030275054068085023,-0.017796916160640802,-0.020977742358722153
-0.028288230563738873,-0.0130175830304042,-0.01117687107782841
-0.011610730664803528,-0.0021456765854966126,0.003934108510326844
0.007060978699460669,0.0023609618616333965,0.011239416523143623
0.012282853114229176,-0.0005597417179556381,0.010276216665289356
0.0035969629985746297,-0.0035809117597418384,0.006529744490908148
-0.0020902269581039427,0.00035880879356130647,0.00556029008852236
0.0068172419870315875,0.008460711352175607,0.005829235503377772
0.021256795708209004,0.012134913398243385,0.00622952635339513
0.0252969163657456,0.010462864420247697,0.012027489134115296
0.009993205209592348,0.000495156135114603,0.010595198436396938
-0.019380761618603342,-0.02282741544637032,-0.01564887041786608
-0.045054361994466614,-0.04759239837797169,-0.04937962907635999
-0.05521744430666105,-0.05664155615158784,-0.06247664532536541
-0.05227044587456397,-0.0503408737366513,-0.057172791562635425
-0.04310446829503396,-0.0409759642247012,-0.051549956028797854
-0.02859844092501225,-0.03426623978510477,-0.047034174877039536
-0.0039958048916404,-0.02086114325765436,-0.027813959531674842
0.029617703540624773,0.008554001638501547,0.013097016249005423
0.05870361789049519,0.041951924143187956,0.05564668269694425
0.07019617317957552,0.059411560037881124,0.0737911163828873
0.06911782287610141,0.06027270114242826,0.06915024434049855
0.06871159502205293,0.057574459014847236,0.06183868178315025
0.06561687737030186,0.05298888263313374,0.0556029008852236
0.048186009451131176,0.03754575215825511,0.0377086489805414
0.022475479270354412,0.014553284666846591,0.011220652889549059
0.0035304893497303345,-0.0010548978530702411,-0.0018263270032041947
-0.004158296033259788,-0.003272336197279115,0.004415708439253978
-0.0058866109032114575,0.00038033732117498484,0.011520871027062077
-0.00839045167634657,0.0031288126798545927,0.007768144308149348
-0.006854171791945085,0.009041981597744924,0.0004690908398640911
0.01088690648849898,0.024111950927319794,0.0010882907484846913
0.035851454610023106,0.04070326954159461,0.008255998781608003
0.04232155643086782,0.04234661381610539,0.007680580684708052
0.027062161040610766,0.02675278364793101,-0.0045845811416050505
0.013073150939378017,0.009996412988617998,-0.014923343252209618
0.015547447868582332,0.007635451126984602,-0.013622397989653206
0.028923423208251028,0.02093290501636662,-0.005172508327568045
0.04277948601179518,0.03735917158560323,0.0021515633188432977
0.04896153535431462,0.043186226393038846,0.006811198994826603
0.04030518908259087,0.03598134581832781,0.013165816238852157
0.012977133446602925,0.017617511763860148,0.018156942775006086
-0.02983189640912306,-0.012615717181615535,0.008731344166003616
-0.07575041583856551,-0.04857553447232967,-0.018663560882059303
-0.11124734432141904,-0.07955508570841287,-0.05540901000474644
-0.12378132010906,-0.09624687078488485,-0.08869569600150234
-0.10298983994276106,-0.08619304838929705,-0.09698296750576796
-0.05745539048441898,-0.047290998991380194,-0.06929409886472354
-0.013892992608457656,-0.003595264111484291,-0.029646541079410556
0.011603344703820828,0.024370293258683937,-0.00525381740647782
0.02994268582386355,0.046006463510430716,0.011464580126278387
0.0518789899424809,0.06675278795414545,0.031260213568543034
0.06480442166220493,0.06994618621684108,0.042105593786200816
0.0598705997257617,0.05321134408514175,0.04166152112446281
0.04977399106241156,0.03799785123814236,0.04496392063710601
0.04588897558551165,0.037875856248331514,0.05873642769551573
0.04278687197277788,0.04472910420535246,0.0732344619195819
0.032535158128791056,0.04432006218069258,0.07743751584476416
0.017874025578132658,0.03405813068483921,0.07380362547195034
0.004579295809273656,0.02233943548712694,0.06820580811623884
-0.004113980267363591,0.015306783133325334,0.06168857271439374
-0.007496750397439937,0.010541802354831185,0.05377031933748788
-0.009793784263059465,0.0014137066466315476,0.038227776176657666
-0.01673658758679694,-0.013562972396617384,0.015110979588155255
-0.028044493851309794,-0.029508435182481845,-0.00422181755877682
-0.04014269794097148,-0.042583427619855854,-0.01977686980867008
-0.04990693836010015,-0.04961607997365746,-0.034199849498358005
-0.05082279752195488,-0.048173668623541006,-0.0391534487673228
-0.03944103164761503,-0.03885899234268949,-0.03357439504520588
-0.019890392926409605,-0.02019375890163033,-0.022328723977530735
-0.0005170172687889612,0.003817725563492301,-0.010951707474693647
0.007334259255820549,0.015163259615900811,-0.012108798213025072
0.002008981387294249,0.005532831596715346,-0.026200287042542368
-0.0075927678902150296,-0.008510944583274189,-0.035044213010113366
-0.018656937442298797,-0.015034088450218742,-0.03580726744295895
-0.030127334848431036,-0.0247721591074726,-0.04480755702381798
-0.03596962998574629,-0.04281306524773509,-0.06182617269408721
-0.033399315563766886,-0.05251525502563282,-0.06763039001933889
-0.024536162384527556,-0.04294941258928839,-0.05417686473203676
-0.01515599193649926,-0.028618589374449804,-0.0349066130304199
-0.012666923085329547,-0.027441696531568718,-0.02569366893548915
-0.01410718547695594,-0.03298170430415529,-0.02384857829869039
-0.010465906712485113,-0.02975960133797476,-0.015974106733505182
-0.003958875086726902,-0.020825262378298227,-0.0034775267595257954
0.0010561924205260205,-0.013347687120480602,0.003064726820445395
0.014535571213952507,0.0011984213704947636,0.010682762059838235
0.046494624386093,0.03151058825055394,0.03187315893263211
0.08281878049900887,0.06582706126675729,0.05823606413299403
0.10061894646731454,0.08305705953357122,0.07541104341655129
0.10134277064361909,0.08539649286759095,0.0852932237763548
0.1036915062361175,0.09481163561063963,0.09607605854869739
0.11097406376505915,0.11056334164798098,0.10264333030679465
0.10472554077369543,0.10779333776168769,0.09167911374303797
0.07251536492814314,0.07878723489019168,0.06376508149885879
0.021988005845496247,0.03701471514378438,0.02934632294189754
-0.03793429560714435,-0.010132760330171294,-0.01205250731224138
-0.09818896530400642,-0.06393255083675359,-0.06472202681218153
-0.13517785790536524,-0.11459635248761006,-0.11409540134401
-0.1302144921249912,-0.1366559171157592,-0.13264638042450191
-0.09793045666961193,-0.12046646435027304,-0.1141266740666676
-0.06888147212465502,-0.08738429358392058,-0.08225976967856702
-0.04685653647424528,-0.054574817500674715,-0.05451461013673891
-0.019469393150395736,-0.022920705732696257,-0.02744494140431509
0.0045128221604293604,-0.0013060640085631556,-0.005847999136972336
0.013272571885910902,0.000990312270229206,-4.37818117206485e-05
0.015894588034769206,-0.004865447240691316,-0.001050763481295564
0.02117555013739931,-0.0028417656450055472,0.00313978135482365
0.025592354805053577,0.008259778427781275,0.012709234488051108
0.029226247608541703,0.02391819417879669,0.025368432619850046
0.03687810318661833,0.041284539787163926,0.03604494013515676
0.04191532857681935,0.05092932015809184,0.03798384893992834
0.03161929896693633,0.043789025166221844,0.03198574073419949
0.012467502138796663,0.028058847656494166,0.029208722962204073
0.008013767666228898,0.023724437430273585,0.041642757490868244
0.027497932738590032,0.03837101238344611,0.0656289357692521
0.05406523439335994,0.055931114740336456,0.07956406098548137
0.06851217407552004,0.060064592042162704,0.0699007896842811
0.0690882790321706,0.05615357619234446,0.05201904686866194
0.05777298680667506,0.049149628542027764,0.03989148502204231
0.024314583555046572,0.022353787838869394,0.013509816188085824
-0.035607717897594024,-0.032579838455366626,-0.04455737524255713
-0.09075868855541078,-0.08300682630247264,-0.10258703940601097
-0.10209613866385443,-0.09102261475063222,-0.11684740093787933
-0.07992348379379069,-0.06633656975361434,-0.09303009536184655
-0.06059442390206624,-0.042942236413417156,-0.06561017213565755
-0.049028009003158915,-0.02912809786130686,-0.04430719346129629
-0.031035808049303067,-0.014553284666846591,-0.022366251244719863
-0.009609135238491977,-0.003444564418188542,-0.010545162080144768
0.0009380170448028295,-0.007247937629938391,-0.019951997055552676
-0.000864157434975835,-0.01578041074082626,-0.033699485935836306
0.0009675608887336273,-0.009056333949487376,-0.02909614116063669
0.016455921069454364,0.01051309765134628,-0.009619489489479629
0.03075514153196049,0.023035524546635877,0.006210762719800566
0.027342827557953343,0.020344458594926076,0.010714034782495841
0.012223765426367581,0.01130965317305238,0.009363053163687258
0.0006204207225467533,0.006358091821906351,0.011921161877079435
-0.004616225614187153,0.006494439163459647,0.021822105870477518
-0.013339045534755197,0.004398995809061617,0.03043461369038223
-0.02489807447267983,-0.002231790695951326,0.029677813802068163
-0.027372371401884144,-0.008295659307137406,0.02126545140717213
-0.025363390014589895,-0.012967349799305616,0.01122690743408058
-0.03345840325162849,-0.019734483645871857,0.005998108205728845
-0.05175342860577501,-0.029709368106876178,0.0032148358892019045
-0.06594185965354064,-0.0419375717914455,-0.009406834975407907
-0.06482657954515303,-0.05616792854408691,-0.03579475835389591
-0.05667986458123554,-0.06965913918199204,-0.06385264512230009
-0.05477428664769908,-0.0762396924559064,-0.08047722448708347
-0.05787639026043285,-0.07446717701571355,-0.08686936899829815
-0.057521864133263274,-0.0666020882608497,-0.08565598735918303
-0.049685359530619165,-0.05396484255162049,-0.07160828034138639
-0.04037904869241787,-0.04167922946008136,-0.048766683712270914
-0.03252038620682566,-0.031194836512219985,-0.025143269016715285
-0.018043902680734743,-0.015306783133325334,-0.0006754908094042911
0.002060683114173145,0.005640474234783738,0.021659487712657965
0.017652446748651674,0.023365628636712276,0.036939340003164296
0.025193512911987806,0.03491927178938635,0.04557061145666357
0.028384248056513968,0.03928956289496306,0.04769090205284926
0.03168577261578062,0.03654108753628345,0.04206806651901169
0.0359105422978847,0.033964840398513274,0.03266748608813531
0.0411988903614975,0.0382561935695065,0.028845959379375844
0.04736616778205154,0.04580553058603638,0.03283635879048638
0.04858485134419695,0.04452817128095814,0.03403723134053845
0.038791067081137484,0.028833874650586587,0.02564363257923698
0.0252599865608321,0.014531756139232911,0.01838210637814085
0.0226158125290257,0.020825262378298227,0.024736723622166404
0.03264594754353155,0.043365630789819504,0.04153017568930087
0.04455950260862575,0.06417654081637528,0.056866318880590884
0.04893937747136652,0.07428059644306166,0.06198879085190676
0.04177499531814806,0.07406531116692489,0.05750428242280605
0.025053179653316517,0.06419806934398896,0.052744574034318405
0.01118234492780696,0.04687478079084908,0.050905737942051166
0.01610139494228479,0.030082529252179933,0.04173032111430954
0.038924014378826075,0.020868319433525583,0.020933960547001505
0.057713899118813465,0.014861860229309314,0.00048159992892713355
0.056214549039325476,0.0046788666680394365,-0.009069089570705761
0.04406464322278489,-0.0025260139066715977,-0.01045134391217195
0.041051171141843514,0.003932544377431919,-0.010319998477010005
0.050948358858660774,0.019181918103787443,-0.006930035340925506
0.05636226825897946,0.032400434058585975,0.004765962933019166
0.04337036289041114,0.03710082925423909,0.018550979080491924
0.02167779548422287,0.0300179436693389,0.02256014212519702
0.007489364436457237,0.01801937761264881,0.018200724586726735
0.008168872846865585,0.01684966094563895,0.018238251853915862
0.024831600823835533,0.031123074753507722,0.029258759318456243
0.044611204335504646,0.0460279920380444,0.04422588438238651
0.045682168677996064,0.04603516821391562,0.05187519234443695
0.02195846200156545,0.02898457434388234,0.04839766558491116
-0.016566710484194856,-0.004406171984932843,0.031698031685749514
-0.05809058312893113,-0.04943667557687681,0.0005941817304945154
-0.08840256700192965,-0.08482239879789286,-0.031122613588849563
-0.09643849255110665,-0.09303194399457554,-0.0474657384497145
-0.08578793681405406,-0.08080374031000621,-0.05030530166702513
-0.06148812518097288,-0.059303917399812736,-0.043944429878468055
-0.020008568302132795,-0.027025478331037602,-0.023241887479132833
0.030363685599877416,0.01631862393116822,0.011158107444233846
0.07093476927784546,0.059540731203563194,0.045176575151177734
0.09527151071584014,0.08753499327721632,0.06156973636829484
0.10054508685748755,0.08864012436138516,0.054633446482837814
0.08077286930680112,0.06711159674770677,0.03716450360629906
0.0438873801592001,0.04285612230296244,0.027488723216035738
0.008818837413343137,0.021492646734322256,0.02717599598945968
-0.016005377449509698,-0.007377108795620461,0.01714370656089965
-0.035585560014645926,-0.03852888825261309,-0.011164361988765368
-0.05025407852628702,-0.05510585451514545,-0.03672043094456105
-0.05419818169104853,-0.05702906964863405,-0.045533084189474445
-0.04566739675603067,-0.05410836606904502,-0.04716552031220148
-0.03133124648861105,-0.04788662158869196,-0.0456081387238527
-0.03379815745683266,-0.048561182120587215,-0.046527556769986315
-0.06850478811453735,-0.07479010492991872,-0.06920028069675072
-0.11081895858442246,-0.1141657819353365,-0.10751562049684968
-0.12452730216831263,-0.1313024899158245,-0.12808056291649145
-0.10533118957427678,-0.11637604410367414,-0.11847358251607484
-0.0745317322764201,-0.08842483908524837,-0.09296129537199982
-0.05267667372861244,-0.06709006822009309,-0.0692252988748768
-0.04416804667654268,-0.05614640001647324,-0.054539628314864995
-0.04003929448721369,-0.04675996197690946,-0.04186792109400301
-0.03370213996405757,-0.03392178334328592,-0.024799269067481616
-0.023989601271807798,-0.020739148267843514,-0.00684872626201573
-0.008168872846865585,-0.0077430937650529936,0.008374835127706906
