channel1,channel2,channel3
-0.0019109848449390416,-0.004356116727298664,0.0019430001377759936
-0.00014199268197689473,-0.0029948302500178315,0.004948320464194386
-0.001289766861290127,-0.00013612864772808325,0.00587303441078466
-0.0019464830154332653,0.0021571154947680883,0.005317105192894078
0.00067446523939025,0.003303737566016174,0.006373921131854392
0.0025085373815918067,0.0028796444711709918,0.007150020337028373
0.0019523993771823026,0.001146622071248086,0.005388660438761183
0.003277664408966653,0.0009371933824356501,0.005333617941940334
0.007596608485763868,0.00521477435142965,0.010177357662175104
0.008620139068347318,0.009686076857575155,0.014019323940270412
0.004206533203565507,0.009288162348831527,0.01277536351211921
0.002490788296344695,0.007523725645586755,0.009511343450642824
0.005105820189419173,0.0068797324274885155,0.006038161901247209
0.0030114281302599756,0.0027435158234429087,0.0023062806167936014
-0.0040467914363414995,-0.004691202629398561,-0.0014476176663883464
-0.007951590190706105,-0.008445211876361472,-0.00586202591142049
-0.007383619462798526,-0.007110103985182194,-0.009186592719399811
-0.006336423433218927,-0.005057702834820324,-0.007838051547288994
-0.004561514908507743,-0.0025183799829695402,-0.0017338386498567647
-0.00046739257817394515,0.0029372373605944116,0.004981345962286896
0.0013903450110237608,0.006581296545930794,0.0059666066553801045
-0.001224686882050717,0.00257597287239296,0.0009577394446827843
-0.001940566653684228,-0.0026963943684601105,-0.0027466205913603985
0.0015500867782477674,-0.0018220295926681912,-0.0018714448919088889
0.003017344492009013,0.00040838594318424976,0.001166900932602013
0.0002129890229653421,-0.00041362166040456066,0.0027301078423141436
-0.0024730392110975832,-0.0021571154947680883,0.0019154788893655686
-0.004626594887747153,-0.004209516645129959,0.0007265609580352157
-0.009466178798459648,-0.006460875049863643,-0.0017613598982671895
-0.01387978466324146,-0.006890203861929137,-0.006159255394253079
-0.011448159984387137,-0.004026266542419078,-0.008025196036479882
-0.005697456364322901,0.000198957254371814,-0.004739158976275157
-0.007022721396107252,-0.00012042149606715056,-0.0016072409071688106
-0.013240817594345432,-0.00421475236235027,-0.00254846760280534
-0.014146020941948136,-0.003952966501334725,-0.003715368535407353
-0.011388996366896765,9.9478627185907e-05,-0.0030988925710138367
-0.011300250940661205,0.0027016300856804215,-0.0023007763671115166
-0.012619599610696518,0.004021030825198767,-0.0013980794192495817
-0.013418308446816551,0.003680709205878559,-0.0006329887134397713
-0.01400994462172028,0.002413665638563322,-1.1008499364169936e-05
-0.012879919527654158,0.004146688038486228,0.001987034135232673
-0.01063761842476903,0.007330004108435252,0.005025379959743575
-0.009785662332907662,0.007125811136843127,0.00591706840824134
-0.009892156844390333,0.005319488695835869,0.005003362961015235
-0.010022316802869153,0.006361396422677737,0.006060178899975549
-0.010584371169027695,0.006947796751352557,0.007722462303965209
-0.012595934163700369,0.0013769936289417652,0.005311600943211993
-0.015500867782477674,-0.004879688449329753,0.00029722948283258824
-0.015920929466659323,-0.003167608918288091,-0.0014090879186137517
-0.012075294329785088,0.0023665441835805244,0.0011173626854632484
-0.0067387360321534626,0.004513188243907991,0.003863983276823647
-0.004898747528202868,0.004219988079570581,0.003225490313701791
-0.0076735211885013525,0.0026545086306976233,-0.0010292946905498888
-0.00950759333070291,-0.0006544646525388618,-0.0037924280309565425
-0.008105415596181074,-0.0037435378125222894,-0.0027851503391349937
-0.007839179317474396,-0.00515194574478592,-0.0033851135544822547
-0.009028368029030889,-0.005146710027565609,-0.004898782217055621
-0.007596608485763868,-0.004350881010078353,-0.0017833768969955294
-0.0029226827040244163,-0.0024607870935461204,0.002196195623151902
0.0005147234721662434,0.0002617858610155447,0.002218212621880242
-0.0003608980666912741,0.001041907726841868,0.0015632069097121306
-0.0014850067990083574,0.0009214862307747174,0.0032640200614763855
0.00073954521862966,0.0027958729956460175,0.004139195760927895
0.0036030643051637038,0.003874430743030062,0.0022622466193369215
0.0034374061761906598,0.0029948302500178315,0.0016402664052613202
0.001396261372772798,0.003319444717677107,0.0024603996078919805
0.0011300250940661206,0.004691202629398561,-0.0010513116892782288
0.0024434574023523966,0.004869217014889132,-0.006935354599427059
0.003277664408966653,0.0030786017255428058,-0.007805026049196484
0.0024375410406033593,-0.0009476648168762719,-0.005454711434946202
0.0013370977552824253,-0.003869195025809751,-0.004585039985176778
0.004129620500828022,-0.0006335217836576182,-0.0038529747774594773
0.009318269754733717,0.005104824289803122,-0.0016127451568508954
0.0104423784870508,0.0041781023418080935,0.0009357224459544444
0.008407150045381975,-0.0018167938754478803,0.0012990029249720523
0.008945538964544367,-0.003125723180525604,-0.0020090511339610133
0.011720312624842853,-6.806432386404163e-05,-0.005443702935582033
0.01318165397685506,0.0012303935467730602,-0.004150204260292065
0.012501272375715774,0.0022827727080555497,-0.00029172523315050325
0.009844825950398034,0.004141452321265917,0.0019264873887297387
0.007496030336030234,0.004125745169604985,0.004739158976275157
0.010329967613819092,0.003261851828253687,0.008570116755006294
0.015489035058979599,0.0015445365799917137,0.005344626441304503
0.0161398348513737,-0.0005602217425732656,-0.002691578094539549
0.015134053354037363,0.001790615289346326,-0.002377835862660706
0.01692079460224662,0.006005367651696595,0.002862209834684183
0.01966598645379992,0.0064242250293214676,0.003974068270465346
0.018784448553193365,0.0047645026704829134,0.004485963490899248
0.013323646658831956,0.0024974371140882965,0.0055372751801774775
0.009466178798459648,0.0007015861075216598,0.0056253431750908365
0.008762131750324212,0.0004607431153873587,0.00833343401867664
0.005093987465921098,-0.0011204434851465313,0.014668825402756437
-0.003058759024252274,-0.0067488394969807425,0.019198822891112365
-0.010164309484846047,-0.015010801270631334,0.01686502102590834
-0.009472095160208686,-0.01773860994241331,0.01099198661512368
-0.002810271830792708,-0.010707041715535779,0.006439972128039412
0.0014258431815179844,-0.00468596691217825,0.0014476176663883464
0.004591096717252929,-0.007162461157385304,-0.0030988925710138367
0.01028855308157583,-0.00959706966482987,-0.004342852999165039
0.014483253561643263,-0.003680709205878559,-0.004425416744396313
0.01860104133897321,0.0060210748033575285,-0.0028071673378633334
0.02338737799394437,0.010565677350587385,0.0014421134167062614
0.02181954213044949,0.008816947799003546,0.0021301446269668825
0.014968395225064319,0.0044503596372642605,-0.003214481814337621
0.010856523809483409,-0.00010471434440621789,-0.007562839063184745
0.010448294848799836,-0.003167608918288091,-0.008784782492607607
0.010566622083780583,-0.004691202629398561,-0.009236130966538575
0.010241222187583532,-0.005314252978615558,-0.006263836138212693
0.010063731335112413,-0.004455595354484571,-0.001343036922428732
0.011105011002942975,-0.0012618078500949254,0.0009907649427752941
0.01027080399632872,0.0014031722150433196,0.0013320284230645622
0.005987358090025727,-0.0002617858610155447,0.001007277691821549
0.0038042206046309712,-0.0034869876687270555,0.0003742889783817778
0.004265696821055879,-0.005146710027565609,0.00018164023950880393
0.0032066680679782057,-0.005937303327832554,0.00039080172742803266
0.0020233957181707497,-0.0044503596372642605,1.1008499364169936e-05
0.0029463481510205655,-0.00013089293050777236,-0.001689804652400085
0.004082289606835723,0.001984336826497829,-0.003952051271737007
0.004490518567519296,-0.0004345645292858042,-0.005284079694801568
0.006218096198238181,-0.0023037155769367935,-0.006929850349744974
0.009265022498992382,-0.0009476648168762719,-0.009781051685064986
0.011016265576707415,0.0012199221123324383,-0.010848876123389471
0.01240069422598214,0.0034084519104223923,-0.007860068546017333
0.01331181393533388,0.003764480681403533,-0.0019319916384118235
0.008738466303328063,-5.2357172203108944e-05,0.004001589518875771
0.0005383889191623925,-0.004759266953262603,0.006346399883443967
-0.004733089399229824,-0.00807871167093971,0.002003546884278928
-0.0061766816659949205,-0.010968827576551323,-0.007920615292520267
-0.004354442247291438,-0.011015949031534121,-0.01594581132900015
0.0004733089399229824,-0.0057540532251216725,-0.015241267369693275
0.005934110834284392,0.003005301684458453,-0.008674697498965909
0.009927655014884556,0.00989550554638759,-0.004370374247575464
0.010187974931842196,0.01035624866177495,-0.0042492807545695946
0.007466448527285048,0.00837191183527712,-0.003396122053846425
0.007933841105458993,0.00966513398869391,0.000985260693093209
0.011696647177846704,0.01106307048651692,0.0039630597711011765
0.013927115557233758,0.010052577062996917,0.0009907649427752941
0.013163904891607948,0.008036825933177222,-0.002988807577372137
0.004585180355503892,0.0006335217836576182,-0.0022897678677473465
-0.01002823316461819,-0.012178278254443141,0.002333801865204026
-0.016672307408787057,-0.01895853205474575,0.006803252607057019
-0.01118192370568046,-0.014314450880329985,0.006583082619773621
-0.0020352284416688244,-0.005000109945396904,0.003660326038586503
0.003147504450487833,0.0017749081376853932,0.004282306252662104
0.0037213915401444492,0.0050943528553625,0.008124272530757412
0.003881133307368456,0.006335217836576182,0.008856337738474713
0.004632511249496191,0.0053666101508186665,0.004436425243760484
0.004330776800295289,0.0026911586512398,-0.0002531954853759085
0.0030114281302599756,0.0011518577884683967,-0.0018494278931805491
0.000591636174903728,0.0026440371962570017,-0.0007485779567635556
-0.002810271830792708,0.003989616521876902,0.0017173259008105098
-0.005235980147897993,0.0024817299624273637,0.0021631701250593924
-0.005484467341357559,0.00021990012325305756,-0.00169530890208217
-0.004259780459306842,-0.0009005433618934738,-0.004959328963558556
-0.001437675905016059,-0.0007487075625044579,-0.0028016630881812486
0.0019878975476765263,0.000696350390301349,0.00029722948283258824
0.0017749085247111842,0.002193765515310265,-0.0006550057121681111
-0.0011300250940661206,0.0017592009860244605,-0.0032420030627480457
-0.0006626325158921754,0.00048692170148891315,-0.0036493175392223335
0.0039107151161136425,0.0028168158645272613,-0.000677022710896451
0.007762266614736912,0.007769804354941367,0.003539232545580634
0.006247678006983368,0.007738390051619502,0.003561249544308974
0.0012956832230391643,0.0023456013146992806,-0.0011999264306945228
0.00034314898144416226,0.00031937875043896454,-0.0031649435671988564
0.004259780459306842,0.0037854235502847765,0.0001871444891908889
0.006999055949111103,0.005994896217255974,0.002168674374741477
0.006348256156717001,0.005340431564717112,0.0006990397096247908
0.003585315219916592,0.004822095559906333,-0.000506390970751817
0.0015441704164987301,0.0055655674051904806,0.00026420398474007845
0.0025617846373331425,0.007303825522333698,0.002862209834684183
0.0031711698974839823,0.007398068432299293,0.004392391246303804
0.0008342070066142566,0.005811646114545092,0.00250443360534866
-0.0014850067990083574,0.004649316891636074,2.201699872833987e-05
-0.0026860282340629253,0.003005301684458453,-0.0008751756994515098
-0.004082289606835723,0.000890071927452852,-0.0013870709198854118
-0.00613526713375166,0.00013612864772808325,-0.0019925383849147583
-0.008022586531694551,0.0015288294283307812,-0.0008806799491335947
-0.0073717867393004516,0.0032723232626943087,0.0021081276282385424
-0.004792253016720197,0.003083837442763117,0.0033135583086151502
-0.0031356717269897584,0.0022199441014118192,0.0013705581708391569
-0.004940162060446129,0.0016073651866354444,-0.0012769859262437124
-0.010690865680510366,-0.000890071927452852,-0.002064093630781863
-0.012347446970240804,-0.004502716809467369,-0.0009467309453186144
-0.00746053216553601,-0.004691202629398561,-0.0010788329376886536
-0.004431354950028923,-0.00010471434440621789,-0.000847654451041085
-0.0058098672375546095,0.0034922233859473665,0.0019815298855505883
-0.010164309484846047,0.0011623292229090184,0.0014200964179779216
-0.013743708343013602,-0.0026440371962570017,-0.0031979690652913662
-0.011956967094804344,-0.0032199660904912,-0.004491467740581333
-0.009253189775494306,-0.0021832940808696427,-0.0018108981454059542
-0.010199807655340272,-0.0006178146319966855,0.0007045439593068759
-0.01092160378872282,0.0007696504313857014,0.001023790440867804
-0.008856793538308809,0.0007853575830466342,-0.001354045421792902
-0.006377837965462188,0.0007277646936232143,-0.003049354323875072
-0.006016939898770914,0.0007539432797247688,-0.0010733286880065687
-0.007785932061733061,0.0004398002465061151,0.0012769859262437124
-0.008495895471617535,0.0011832720917902622,0.0012219434294228628
-0.006472499753446785,0.0027958729956460175,0.00047886972234139214
-0.0035320679641752564,0.004350881010078353,0.0016347621555792354
-0.0015915013104910284,0.004712145498279805,0.004546510237402183
-0.001981981185927489,0.0023613084663602134,0.004948320464194386
-0.00402312598934535,-0.0011623292229090184,0.0015962324078046405
-0.004892831166453831,-0.0025393228518507836,-0.0006495014624860262
-0.004259780459306842,-0.001036672009621557,-0.0006274844637576863
-0.004951994783944203,-0.0004398002465061151,-0.0010953456867349085
-0.0068748123523813195,-0.0020262225642603163,-0.0008201332026306601
-0.006093852601508399,-0.001235629263993371,0.001502660163209196
-0.002869435448283081,0.0011204434851465313,0.003566753793991059
-0.0020233957181707497,-0.00031414303321865365,0.0029007395824587777
-0.0033900752821983617,-0.003989616521876902,0.0002531954853759085
-0.003378242558700287,-0.003811602136386331,-5.504249682084967e-05
-0.00256770099908218,-0.000743471845284147,0.0023172891161577715
-0.0011655232645603442,-0.0003926787915233171,0.003946547022054922
0.0009525342415950021,-0.0016544866416182426,0.004458442242488823
-0.0005620543661585416,-0.001727786682702595,0.0031979690652913662
-0.005519965511851782,-0.0011832720917902622,0.0010843371873707386
-0.006691405138161164,-0.00030367159877803186,0.002157665875377307
-0.004117787777329947,-0.000743471845284147,0.003709864285725268
-0.0041118714155809095,-0.0031990232216099566,0.0012054306803766079
-0.004857332995959607,-0.004460831071704882,-0.0005449207185264118
-0.0007868761126219582,-0.0022565941219539953,0.0032475073124301305
0.0050466565719288,0.001188507809010573,0.007716958054283124
0.0056442091085815655,0.0019058010681931655,0.006043666150929294
0.0014199268197689473,-0.0002722572954561665,0.00041281872615637257
-0.0019523993771823026,-0.0030943088772037385,-0.002388844362024876
-0.0026505300635687014,-0.005848296135087269,-0.0022677508690190067
-0.0017985739717073332,-0.005549860253529548,-0.0005669377172547517
0.0019878975476765263,0.0001675429510499486,0.004618065483269288
0.006762401479149611,0.004607431153873587,0.009566385947463674
0.006312757986222778,0.0024189013557836332,0.008168306528214092
0.0029167663422753794,0.0001780143854905704,0.004128187261563726
0.0030942571947464976,0.003895373611911305,0.004761175975003497
0.006087936239759361,0.00895307644673163,0.0077389750530114645
0.007993004722949365,0.009549948209847071,0.007348173325583431
0.006620408797172716,0.006659832304235457,0.003748394033499863
0.001118192370568046,0.0014764722561276722,-0.0012714816765616276
-0.005348391021129701,-0.005277602958073381,-0.006373921131854392
-0.005537714597098895,-0.007162461157385304,-0.008327929768994555
-0.0003017344492009013,-0.0034503376481848794,-0.006775731358646595
0.001242435967297829,-0.0032094946560505782,-0.005955598156015935
0.00019523993771823026,-0.005481795929665506,-0.005300592443847824
0.004182867756569357,-0.00193197965429472,-0.0012054306803766079
0.008720717218080952,0.0037383020953019783,0.002867714084366268
0.006431085221203524,0.00351316625482861,0.0024603996078919805
0.003395991643947399,-0.0009319576652153392,-0.00024769123569382353
0.005579129129342155,-0.0031885517871693345,-0.0012219434294228628
0.007105550460593774,-0.0015497722972120248,-0.0005504249682084968
0.006247678006983368,0.0006597003697591727,-0.00039630597711011765
0.007170630439833184,0.0014398222355854959,-0.000165127490462549
0.006661823329415978,0.0021466440603274666,0.0009137054472261046
0.00424203137405973,0.003183316069949024,0.001882453391273059
0.005863114493295945,0.0023037155769367935,0.0017063174014463399
0.008992869858536666,-0.0006597003697591727,-0.00039080172742803266
0.006235845283485294,-0.004408473899501773,-0.004326340250118785
-0.0014021777345218354,-0.009026376487815981,-0.007821538798242739
-0.00693989233162073,-0.012282992598849359,-0.008146289529485751
-0.006549412456184269,-0.011837956635122932,-0.00674821011023617
-0.0011418578175641952,-0.008513276200225513,-0.005173994701159869
0.004975660230940353,-0.004513188243907991,-0.0024108613607532157
0.006484332476944859,-0.002429372790224255,0.00019815298855505883
0.002810271830792708,-0.0027592229751038414,-0.0003742889783817778
-0.00028990172570282673,-0.002335129880258659,-0.0022402296206085817
0.0004733089399229824,0.0007068218247419707,0.00024769123569382353
0.0014199268197689473,0.002392722769682079,0.004838235470552686
0.001875486674444818,0.0018429724615494348,0.007094977840207523
0.004455020397025072,0.003382273324320838,0.007161028836392543
0.005792118152307497,0.0035393448409301647,0.0015962324078046405
0.003330911664707989,-0.001492179407788605,-0.006951867348473314
-0.0002721526404557149,-0.006099610561662192,-0.009494830701596568
-0.003821969689878083,-0.00667553945589639,-0.006863799353559954
-0.006957641416867842,-0.005774996094002917,-0.004711637727864732
-0.008602389983100206,-0.006392810725999602,-0.004733654726593072
-0.007436866718539862,-0.007853575830466341,-0.005124456454021105
-0.0036148970286617784,-0.007267175501791521,-0.003363096555753915
-0.0003963962371854978,-0.005497503081326439,-0.0007265609580352157
-0.0002425708317105285,-0.005513210232987372,-0.0004183229758384575
-0.0006567161541431381,-0.006801196669183851,-0.0010623201886423986
0.0008874542623555921,-0.007528961362807066,-0.0006825269605785359
0.0025440355520860306,-0.0070158610752165985,-0.0021631701250593924
0.004389940417785662,-0.00409956658350343,-0.004458442242488823
0.007010888672609177,0.0012670435673152365,-0.0024273741097994707
0.00817641193716952,0.005544624536309237,0.0026145185989903596
0.010122894952602787,0.006251446361051208,0.006390433880900647
0.014122355494951989,0.006047253389459083,0.007199558584167137
0.013560301128793447,0.006094374844441881,0.005047396958471915
0.006715070585157313,0.002727808671781976,0.0018494278931805491
0.00018340721422015568,-0.004068152280181565,-0.001711821651128425
-0.0033368280264570263,-0.009466176734322098,-0.006098708647750144
-0.00594002719603343,-0.011979321000071326,-0.011091063109401209
-0.009430680627965425,-0.013251600284606873,-0.016419176801659458
-0.011406745452143876,-0.010382427247876504,-0.01771817972663151
-0.005727038173068087,0.00031937875043896454,-0.010281938406134719
0.001999730271174601,0.010984534728212257,0.00014311049173420915
-0.00043781076942875873,0.009743669746998574,0.004574031485812608
-0.0100933131438576,-0.0013298721739589672,0.004100666013153301
-0.015861765849168947,-0.010377191530656192,0.0017943853963596993
-0.01394486464248087,-0.011565699339666766,-0.001524677161937536
-0.008584640897853093,-0.008052533084838156,-0.0011613966829199282
-0.003898882392615568,-0.004596959719432965,0.0017228301504925948
-0.0003904798754364605,-0.004659788326076696,0.00018164023950880393
0.0036208133904108157,-0.0068169038208447845,-0.003891504525234072
0.01053112391328636,-0.0038273092880472637,-0.0038144450296848822
0.015394373270995004,0.0026388014790366906,-0.0013815666702033267
0.01237702877898599,0.004282816686214311,-0.003142926568470516
0.006868895990632283,0.0027016300856804215,-0.00767842830650853
0.004815918463716346,0.0017644367032447713,-0.008124272530757412
0.003691809731399263,0.0005131002875904677,-0.004271297753297935
-0.0005265561956643179,-0.0008848362102325412,-0.0016402664052613202
-0.0060110235370218765,-0.0016859009449401079,-0.0018219066447701243
-0.008981037135038592,-0.0030157731188990753,-0.001513668662573366
-0.010235305825834495,-0.005183360048107786,5.504249682084967e-05
-0.01015839312309701,-0.0059530104794934865,-0.00041281872615637257
-0.006821565096639984,-0.00404197369408001,-0.0022127083721981567
-0.000970283326842114,0.00041362166040456066,-0.001524677161937536
0.005306976488886441,0.006738368062540121,0.0022952721174294313
0.009424764266216388,0.011796070897360445,0.007414224321768451
0.009785662332907662,0.013021228726913194,0.00859763800341672
0.00919994251975297,0.012597135632068011,0.003715368535407353
0.009667335097926916,0.01282227147254138,-0.00012109349300586928
0.009679167821424991,0.011733242290716714,0.00025869973505799346
0.010335883975568129,0.009272455197170593,-0.0004073144764742876
0.012578185078453258,0.009879798394726658,-0.0013485411721108171
0.010554789360282507,0.01194267097952915,0.002520946354394915
0.0012365196055487916,0.007193875460707168,0.007727966553647294
-0.007253459504319705,-0.001486943690568294,0.009929666426481281
-0.00987440775914322,-0.004921574187092241,0.009737017687608308
-0.011797225327580338,-0.008298611794192768,0.003748394033499863
-0.014826402543087425,-0.016199309079641906,-0.006605099618501961
-0.015187300609778699,-0.018932353468644195,-0.010518621142464372
-0.011122760088190086,-0.011644235097971429,-0.005718915419686281
-0.003058759024252274,-0.00015183579938901593,0.0018879576409551438
0.005088071104172061,0.00749231134226489,0.007810530298878569
0.007886510211466694,0.007199111177927479,0.008140785279803667
0.007217961333825482,0.00468596691217825,0.005460215684628287
0.007868761126219584,0.004586488284992344,0.005179498950841954
0.007401368548045638,0.0031361946149662256,0.004282306252662104
0.0023487956143678004,-0.0002879644471170992,-0.0010347989402319738
-0.0038397187751251947,-0.002476494245207053,-0.006082195898703889
-0.0033900752821983617,-0.0012199221123324383,-0.004463946492170909
0.0045792639937548545,0.0034451019309645683,0.0012439604281512025
0.010045982249865302,0.0072095826123681015,0.002867714084366268
0.007194295886829333,0.0068169038208447845,-0.0017558556485851046
0.0008874542623555921,0.0033351518693380397,-0.005674881422229602
-0.0033072462177118397,-0.0010523791612824897,-0.0021136318779206276
-0.00546080189436141,-0.0041833380590284045,0.0034126348028926798
-0.007513779421277346,-0.004413709616722084,0.003985076769829517
-0.007413201271543712,-0.0021466440603274666,0.003693351536679013
-0.0034551552614377717,0.0018220295926681912,0.00596110240569802
0.0009525342415950021,0.006288096381593384,0.007727966553647294
0.0022837156351283904,0.007680797162196082,0.0065665698707273665
0.0015737522252439165,0.006649360869794836,0.005339122191622418
0.003123839003491684,0.008293376076972456,0.00767842830650853
0.007922008381960919,0.011576170774107388,0.010524125392146458
0.010395047593058501,0.011717535139055782,0.009093020474804366
0.00733037220705719,0.009241040893848728,0.004315331750754614
0.004017209627596313,0.008905954991748831,0.0006990397096247908
0.0049460784221951664,0.01118349198258407,0.0008421502013590001
0.007052303204852438,0.012178278254443141,0.0032475073124301305
0.007750433891238837,0.01182748520068231,0.005273071195437399
0.005750703620064236,0.008974019315612872,0.004986850211968981
-0.0016447485662323639,-0.0013508150428402108,0.0017723683976313596
-0.00870296813283384,-0.012769914300338272,-0.0013705581708391569
-0.00996315318537878,-0.01487467262290325,-0.003208977564655536
-0.013418308446816551,-0.014618122479108016,-0.008322425519312471
-0.019979553626498895,-0.01703702383489165,-0.013276250233188942
-0.017417768989165753,-0.011801306614580755,-0.007887589794427758
-0.00726529222781778,-0.00031414303321865365,0.0016843004027180001
-0.0035143188789281445,0.0030524231394412514,0.002344810364568196
-0.006519830647439083,-0.001633543772736999,-0.001172405182284098
-0.007212044972076444,-0.0021047583225649795,0.00018164023950880393
-0.005218231062650881,0.0020576368675821813,0.0012769859262437124
-0.0040467914363414995,0.0024974371140882965,-0.002735612091996229
-0.002952264512769603,-0.0002617858610155447,-0.005438198685899948
-0.00073954521862966,-0.0006230503492169965,-0.002564980351851595
0.0019878975476765263,0.002293244142496172,0.0007981162039023202
0.00363264611390889,0.003942495066894103,0.0008971926981798497
0.0014435922667650964,-0.00024084299213430113,-0.000671518461214366
-0.0028812681717811555,-0.0054294387574623975,-0.001689804652400085
-0.003691809731399263,-0.003696416357539491,-0.00030823798219675817
-0.003052842662503237,-0.00040838594318424976,0.00022567423696548367
-0.004549682185009668,-0.0027539872578835303,-0.0027411163416783137
-0.0032835807707156904,-0.004068152280181565,-0.0026145185989903596
0.0010826942000738222,2.6178586101554472e-05,0.0022292211212444116
0.001242435967297829,0.0029477087950350333,0.003203473314973451
-0.0028812681717811555,0.0020419297159212486,-0.0014145921682958366
-0.004490518567519296,0.0002932001643374101,-0.0037594025328640326
-0.003117922641742647,-0.002513144265749229,-0.0023117848664756862
-0.006229928921736256,-0.009063026508358158,-0.004513484739309673
-0.014288013623925032,-0.015879930329202943,-0.011223165101771248
-0.01825197599578001,-0.01586945889476232,-0.014217476928825471
-0.014187435474191398,-0.009340519521034636,-0.009120541723214791
-0.006093852601508399,-0.0028901159056116134,-0.0018108981454059542
-0.0014909231607573947,-0.0018482081787697456,-0.0006825269605785359
-0.002484871934595658,-0.0038430164397081964,-0.0038089407800027974
-0.0017157449072208112,-0.0023508370319195917,-0.003208977564655536
0.0027747736602984846,0.0032513803938130654,0.0005559292178905817
0.004064540521588612,0.0061519677338653005,-0.00017063174014463398
0.001857737589197706,0.0031414303321865367,-0.003737385534135693
0.001224686882050717,0.001691136662160419,-0.0018053938957238694
0.002952264512769603,0.005586510274071724,0.003208977564655536
0.006697321499910201,0.008633697696292665,0.005856521661738405
0.009815244141652848,0.009057790791137848,0.007326156326855092
0.008188244660667596,0.010371955813435882,0.008113264031393242
0.00520048197740377,0.011921728110647907,0.008619655002145059
0.005579129129342155,0.011733242290716714,0.009500334951278654
0.004762671207975011,0.008932133577850386,0.0073977115727221964
-0.00018340721422015568,0.004324702423976799,0.002047580881735608
-0.002212719294139943,0.0013769936289417652,-0.0011558924332378431
0.0011773559880584189,8.37714755249743e-05,5.504249682084967e-05
0.003798304242881934,-0.0015288294283307812,0.002691578094539549
0.0035971479434146665,-0.002130936908666534,0.0026970823442216342
0.004082289606835723,0.0004345645292858042,0.000511895220433902
0.00546080189436141,0.003476516234286434,-0.0008641672000873399
0.0018222394187034823,-0.0005392788736920221,-0.004970337462922725
-0.006993139587362065,-0.010110169952420337,-0.013567975466339444
-0.010199807655340272,-0.014450579528058068,-0.01796036671264325
-0.00533064193588259,-0.011953142413969772,-0.014145921682958366
-0.0014495086285141337,-0.007994940195414735,-0.007480275317953471
0.001289766861290127,-0.0022827727080555497,-0.00043483572488471243
0.00552588187360082,0.004204280927909648,0.005498745432402883
0.004827751187214421,0.004219988079570581,0.005168490451477784
-0.0007927924743709956,-0.0028011087128663285,-0.0009192096969081895
-0.0022008865706418684,-0.00772791861717888,-0.005025379959743575
0.0025854500843292914,-0.005261895806412449,-0.0034126348028926798
0.006614492435423679,0.00042409309484518244,0.00021466573760131372
0.0057092890878209755,0.004005323673537834,0.0026640568461291244
0.002875351810032118,0.006094374844441881,0.005619838925408752
0.002064810250414011,0.008534219069106758,0.008757261244197184
0.003248082600221467,0.00978555548476106,0.007067456591797098
0.002076642973912085,0.008460919028022405,-0.0004678612229772222
-0.0027511082133023354,0.005178124330887475,-0.007403215822404281
-0.005626460023334454,0.0013560507600605216,-0.008790286742289693
-0.0039462132866078655,-0.0004659788326076696,-0.007061952342115013
-0.0007750433891238837,0.0015288294283307812,-0.004689620729136392
0.002212719294139943,0.004879688449329753,-0.0001376062420521242
0.0051117365511682104,0.007157225440164993,0.005113447954656934
0.006963557778616879,0.008602283392970799,0.007006909845294163
0.0073422049305552645,0.008617990544631733,0.0066271166172303005
0.00665590696766694,0.00825672605643028,0.0055978219266804114
0.004821834825465383,0.007518489928366444,0.0023393061148861112
0.0025558682755841052,0.0039163164807925486,-0.0007045439593068759
0.0003904798754364605,0.00040315022596393887,0.000165127490462549
-0.00147909043725932,0.00064399321809824,0.002350314614250281
-0.002467122849348546,0.002623094327375758,0.0017283344001746798
-0.0041118714155809095,0.0011780363745699512,-0.0024548953582098952
-0.0059459435577824665,-0.00468596691217825,-0.006093204398068059
-0.004857332995959607,-0.00754990423168831,-0.0038419662780953072
-0.002407959231858173,-0.005497503081326439,7.705949554918954e-05
-0.0013370977552824253,-0.005193831482548407,-0.0002807167337863333
-0.001289766861290127,-0.005916360458951311,-0.001210934930058693
-0.0008933706241046293,-0.00316237320106778,0.00035227197965343794
0.0005679707279075789,-0.0003403216193202081,0.0032475073124301305
0.0008164579213671447,-1.0471434440621788e-05,0.005911564158559255
-0.0015678358634948792,0.0022042369497508865,0.006054674650293464
-0.0024789555728466205,0.005926831893391932,0.005614334675726667
-0.0004200616841816469,0.005188595765328096,0.006318878635033542
-0.00013607632022785744,0.00030890731599834276,0.004722646227228902
-0.0016743303749775502,-0.0023456013146992806,0.0026805695951753793
-0.0015145886077535438,-0.0009790791201981371,0.003043850074192987
-0.0005620543661585416,1.0471434440621788e-05,0.0016292579058971503
-0.0008460397301123311,-0.0007120575419622816,-0.0005504249682084968
-0.0010708614765757478,0.00010995006162652878,0.0005999632153472614
0.0002603199169576403,0.0016178366210760663,0.0022952721174294313
-0.0005502216426604671,4.188573776248715e-05,0.0017668641479492745
-0.005259645594894142,-0.0022461226875133736,0.0005834504663010065
-0.0070404704813543635,-0.001534065145551092,0.0005614334675726666
-0.0023547119761168377,-0.0003298501848795863,0.001970521386186418
0.0034078243674454736,0.0005864003286748202,0.005933581157287595
0.006271343453979517,0.004523659678348613,0.01185615381521102
0.007081885013597624,0.009932155566929767,0.015472445856340843
0.007354037654053339,0.012858921493083555,0.015615556348075052
0.007714935720744613,0.012173042537222829,0.014233989677871726
0.005951859919531504,0.00754990423168831,0.010931439868620746
-0.0010531123913286359,0.00040838594318424976,0.004524493238673843
-0.008377568236636788,-0.005083881420921878,-0.0024603996078919805
-0.008643804515343467,-0.007251468350130588,-0.005658368673183346
-0.0033190789412099143,-0.006827375255285406,-0.003952051271737007
0.004531933099762557,-0.0017539652688041496,0.001987034135232673
0.011578319942865957,0.004691202629398561,0.009148062971625216
0.01119967279092757,0.0036859449230988695,0.010364502151365994
0.004810002101967309,-0.003942495066894103,0.0034786857990776994
0.0010826942000738222,-0.00919391943886593,-0.002862209834684183
0.002786606383796559,-0.00655511795982924,-0.0016567791543075751
0.004756754846225973,-0.0008796004930122302,0.0010843371873707386
0.0012542686907959033,-0.00015183579938901593,-0.0016182494065329804
-0.005762536343562311,-0.002083815453683736,-0.006186776642663504
-0.008827211729563623,-0.0021885297980899538,-0.009483822202232399
-0.009625920565683656,-0.0031361946149662256,-0.012857927257350485
-0.013471555702557887,-0.006172910602746545,-0.013413856475241065
-0.014240682729932733,-0.006691246607557323,-0.008471040260728764
-0.008430815492378124,-0.0022251798186321303,-0.00250443360534866
-0.0023487956143678004,0.005131002875904676,0.0015632069097121306
0.0010886105618228596,0.011570935056887076,0.005052901208154
0.0013015995847882017,0.011623292229090185,0.004320836000436699
-0.0020529775269159363,0.00544514590912333,-0.002141153126331052
-0.0059459435577824665,-0.0009476648168762719,-0.00835545101740498
-0.00950759333070291,-0.005104824289803122,-0.01174606882156932
-0.013643130193279968,-0.008864069253986345,-0.014206468429461301
-0.016086587595632366,-0.013162593091861588,-0.01570362434298841
-0.014654828052365343,-0.015256879979985946,-0.014966054885589027
-0.009140778902262598,-0.01223587114386656,-0.012478134029286622
-0.0013785122875256863,-0.005921596176171621,-0.008526082757549614
0.0037864715193838593,-0.0025079085485289186,-0.004227263755841255
0.0030055117685109383,-0.003617880599234828,-0.001854932142862634
0.0005738870896566161,-0.0026963943684601105,0.0010568159389603138
0.0014495086285141337,0.002329894163038348,0.006517031623588601
0.0015678358634948792,0.004790681256584468,0.008603142253098803
-0.0009643669650930767,0.0014031722150433196,0.0038364620284132224
-0.001455424990263171,-0.0025497942862914057,-0.0015577026600300458
-0.00044372713117779604,-0.0018115581582275695,-0.0021026233785564575
-0.0010945269235718969,0.002020986847040005,-4.9538247138764706e-05
-0.0019050684831900043,0.005722638921799808,0.001321019923700392
-0.0005798034514056535,0.008403326138598986,0.0035722580436731437
-0.00010649451148267105,0.008534219069106758,0.00598311940442636
-0.0036267297521598526,0.005717403204579497,0.0024934251059844903
-0.010087396782108562,0.0003507930537608299,-0.007469266818589301
-0.017719503438366653,-0.007131046854063438,-0.015901777331543472
-0.021825458492198527,-0.011487163581362102,-0.01612194731882687
-0.01808040150505793,-0.008932133577850386,-0.011135097106857889
-0.008649720877092504,-0.004319466706756488,-0.007887589794427758
0.0006153016218998771,-0.002471258527986742,-0.0067096803624615755
0.0050466565719288,-0.0009947862718590699,-0.00419974250743083
0.0060406053457670635,0.00298435881557721,0.0006274844637576863
0.008413066407131013,0.006539410808168307,0.004711637727864732
0.011696647177846704,0.007754097203280435,0.005300592443847824
0.01093935287396993,0.008340497531955255,0.004865756718963111
0.0051117365511682104,0.008063004519278777,0.005003362961015235
-0.0019938139094255636,0.005696460335698253,0.003566753793991059
-0.0062417616452343306,0.001434586518365185,-0.0003577762293355229
-0.004685758505237526,-0.003005301684458453,-0.0055372751801774775
-0.0017630758012131095,-0.007104868267961884,-0.01031496390422723
-0.0037450569871405985,-0.010995006162652877,-0.013111122742726392
-0.006123434410253585,-0.011586642208548008,-0.011547915833014262
-0.004230198650561655,-0.007738390051619502,-0.005559292178905817
-0.000928868794598853,-0.003675473488658248,0.0007540822064456405
0.0018636539509467433,-0.002434608507444566,0.003985076769829517
0.003484737070182958,-0.0030995445944240496,0.003550241044944804
0.0031120062799936095,-0.0029948302500178315,0.0015411899109837909
0.0043130277150481774,0.0002932001643374101,0.0014311049173420915
0.007602524847512905,0.00550273879854675,0.0031264138194242613
0.006969474140365916,0.00790069728544914,0.0028236800869095883
0.003478820708433921,0.005476560212445195,-0.00034126348028926795
0.0027570245750513727,0.0018115581582275695,-0.0034951985481239544
0.0033249953029589516,0.0005811646114545092,-0.004238272255205425
0.0023961265083600985,0.0011623292229090184,-0.0012934986752899673
0.0021653884001476445,0.0021675869292087104,0.004012598018239941
0.002975929959765752,0.0036335877508957607,0.007265609580352157
0.0011241087323170832,0.0026963943684601105,0.005322609442576163
-0.0017867412482092586,-0.0032932661315755525,-0.0013320284230645622
-0.0010176142208344122,-0.008827419233444168,-0.007562839063184745
0.001224686882050717,-0.008146775994803752,-0.006489510375178176
0.0012306032437997543,-0.004460831071704882,-8.25637452312745e-05
0.0002603199169576403,-0.0020524011503618707,0.004359365748211295
-0.0010057814973363376,-0.0009214862307747174,0.006874807852924125
-0.002194970208892831,-0.0010680863129434225,0.00848755300977502
-0.0013193486700353134,-0.002774930126764774,0.006753714359918255
0.0004259780459306842,-0.004094330866283119,0.004304323251390445
0.0014258431815179844,-0.0029372373605944116,0.005196011699888209
0.0015974176722400658,-0.0013979364978230087,0.007221575582895478
0.00040231259893453504,-0.0007644147141653906,0.00764540280841602
0.00045555985467587057,0.0017696724204650824,0.007425232821132621
0.004259780459306842,0.0041781023418080935,0.005405173187807438
0.007223877695574519,0.0013403436083995889,-0.0012329519287870327
0.006312757986222778,-0.003560287709811408,-0.007942632291248608
0.008140913766675298,-0.002523615700189851,-0.006412450879628987
0.01301007948613298,0.0025969157412742035,-0.0001871444891908889
0.010519291189788284,0.0024869656796476748,-0.0003852974777459477
0.002402042870109136,-0.0019686296748368964,-0.005300592443847824
0.00040822896068357236,-0.0036440591853363824,-0.004216255256477085
0.0035202352406771818,-0.0023822513352414567,0.0031814563162451113
0.004117787777329947,-0.0007277646936232143,0.008883858986885138
0.004236115012310693,-7.853575830466341e-05,0.011074550360354955
0.005863114493295945,-0.0018534438959900566,0.01174606882156932
0.004721256675731749,-0.0037330663780816677,0.010342485152637654
0.0022008865706418684,-0.001738258117143217,0.007838051547288994
5.91636174903728e-06,0.0008848362102325412,0.004320836000436699
-0.0047094239522336755,-0.0004502716809467369,-5.504249682084968e-06
-0.006348256156717001,-0.002607387175714825,-0.0017613598982671895
-0.0011122760088190086,-0.0022670655563946174,-0.0015852239084404706
0.0016447485662323639,-0.0014450579528058067,-0.0015521984103479608
-0.0007750433891238837,-0.0018220295926681912,-0.0012659774268795425
-0.0011359414558151579,-0.0009686076857575155,-0.0011558924332378431
0.001922817568437116,0.0017644367032447713,-0.0013980794192495817
0.004768587569724048,0.002921530208933479,-0.001854932142862634
0.005910445387288243,0.0017225509654822842,-0.0020806063798281178
0.0057802854288094225,-0.0005759288942341984,-0.0010347989402319738
0.005348391021129701,-0.0013194007395183453,0.0014806431644808563
0.005673790917326752,0.002120465474225912,0.004607056983905118
0.006490248838693896,0.0066127108492526595,0.008107759781711157
0.008821295367814584,0.009408583844898677,0.010705765631655262
0.014518751732137486,0.009942627001370389,0.009852606930932092
0.020198459011213275,0.0077855115066023,0.008173810777896176
0.01725211086019271,0.003680709205878559,0.007573847562548915
0.004886914804704793,-0.0030105374016787642,0.004386886996621719
-0.003863384222121344,-0.008691290585716084,0.0007871077045381504
-0.003342744388206063,-0.008832654950664478,0.0007981162039023202
-0.0016388322044833265,-0.006806432386404162,0.0012329519287870327
-0.0029226827040244163,-0.0060891391272215704,-0.0010292946905498888
-0.005088071104172061,-0.0058273532662060255,-0.003913521523962412
-0.004756754846225973,-0.003366566172659905,-0.0018053938957238694
-0.0017985739717073332,0.0014031722150433196,0.004733654726593072
-7.691270273748464e-05,0.0037801878330644655,0.006506023124224432
0.0004496434929268333,0.003816837853606642,0.0017558556485851046
0.0014909231607573947,0.005785467528443538,-0.0013925751695674968
0.0027747736602984846,0.0070106253579962875,-0.0002366827363296536
0.004070456883337649,0.002272301273614928,-0.0007705949554918954
0.003999460542349202,-0.0035079305376082993,-0.0024438868588457256
0.005182732892156657,0.0003350859020998972,0.0019650171365043333
0.010755945659749775,0.012036913889494747,0.009874623929660431
0.012909501336399346,0.01815223160281787,0.01289645700512508
0.005419387362118148,0.013309193174030294,0.009302181962723595
-0.0027037773193100373,0.0048430384287875775,0.0026200228486724444
-0.003342744388206063,0.0002827287298967883,-0.003764906782546118
-0.001437675905016059,-0.00048168598426860226,-0.008063725784254478
-0.0035557334111714052,-0.002324658445818037,-0.010579167888967308
-0.007993004722949365,-0.005937303327832554,-0.011696530574430555
-0.008282906448652193,-0.0067488394969807425,-0.010755303878794026
-0.0036385624756579272,-0.0036440591853363824,-0.009610419944920352
0.0005561380044095043,0.0005340431564717112,-0.009093020474804366
0.0024434574023523966,0.004298523837875244,-0.006126229896160569
0.005928194472535355,0.008408561855819296,-0.0007650907058098105
0.011081345555946826,0.010801284625501374,0.0028071673378633334
0.008827211729563623,0.004979167076515661,-3.852974777459477e-05
-0.0014435922667650964,-0.005733110356240429,-0.007122499088617948
-0.005555463682346006,-0.00896354788117225,-0.00763439430905185
-0.0002484871934595658,-0.004460831071704882,-0.0006825269605785359
0.002076642973912085,-0.0016283080555166882,0.002355818863932366
-0.0005857198131546908,-0.0020628725848024923,0.0007650907058098105
0.0003727307901893487,-7.330004108435252e-05,0.0025539718524874248
0.002786606383796559,0.0033089732832364853,0.00511895220433902
0.0013015995847882017,0.0030890731599834275,0.004805209972460176
0.0004733089399229824,0.0023456013146992806,0.006027153401883039
0.0017039121837227368,0.0038011307019457092,0.007755487802057719
0.00017157449072208113,0.005052467117600013,0.006561065621045281
-0.004070456883337649,0.0053823173024796,0.004216255256477085
-0.007348121292304302,0.003795894984725398,0.0010623201886423986
-0.006868895990632283,0.0006021074803357529,-0.002988807577372137
-0.0031415880887387957,-0.00040838594318424976,-0.005718915419686281
0.0004141453224326096,0.0019686296748368964,-0.004062136265378706
0.0025203701050898813,0.004879688449329753,0.0019209831390476536
0.003188918982731094,0.004335173858417421,0.005383156189079098
0.002934515427522491,0.0004555073981670478,0.0036823430373148433
0.004460936758774109,-0.0011623292229090184,0.0014145921682958366
0.005922278110786317,0.0005549860253529548,-0.0011338754345095034
0.0008401233683632938,-0.0011152077679262204,-0.006472997626131922
-0.008738466303328063,-0.008670347716834842,-0.014624791405299759
-0.013518886596550185,-0.014539586720803353,-0.019760256358685033
-0.00998681863237493,-0.011508106450243345,-0.013947768694403307
-0.00263278097832159,-0.001387465063382387,-0.002185187123787732
0.002260050188132241,0.0075394327972476876,0.004205246757112915
0.0027747736602984846,0.007827397244364787,0.00429881900170836
0.0010945269235718969,0.003183316069949024,0.003253011562112216
-0.00031356717269897584,0.0037278306608613566,0.003374105055118085
-9.466178798459649e-05,0.009518533906525206,0.004585039985176778
0.0002425708317105285,0.013204478829624075,0.004986850211968981
-0.0020588938886649736,0.009523769623745517,0.0012164391797407777
-0.007655772103254241,-0.0004659788326076696,-0.005713411170004196
-0.015039391566052766,-0.008937369295070696,-0.011030516362898275
-0.01860104133897321,-0.00972272687811733,-0.011085558859719125
-0.013512970234801148,-0.004303759555095555,-0.0057079069203221115
-0.004827751187214421,0.0006230503492169965,-0.0009137054472261046
-0.0015382540547496928,-0.00021990012325305756,-0.001359549671474987
-0.005401638276871037,-0.005450381626343641,-0.004386886996621719
-0.011258836408417945,-0.010675627412213914,-0.008003179037751542
-0.01387978466324146,-0.01370187196555361,-0.010628706136106073
-0.011394912728645802,-0.01335107891179278,-0.009137054472261047
-0.005022991124932651,-0.007942583023211627,-0.004073144764742876
0.0012365196055487916,-0.0007225289764029034,-0.00010458074395961438
-0.0006448834306450635,-0.001486943690568294,-0.003974068270465346
-0.01093935287396993,-0.009848384091404792,-0.013034063247177203
-0.013560301128793447,-0.01170706370461516,-0.014167938681686707
-0.0034551552614377717,-0.004523659678348613,-0.007216071333213392
0.0037213915401444492,0.0011204434851465313,-0.0025869973505799346
0.004324860438546252,0.0038901378946909946,0.0006825269605785359
0.007661688465003278,0.008052533084838156,0.005438198685899948
0.010821025638989186,0.00883789066788479,0.005267566945755314
0.006513914285690045,0.002874408753950681,-0.0005669377172547517
-0.0006153016218998771,-0.001387465063382387,-0.0029447735799154576
-0.0037746387958857847,-0.0010104934235200026,-0.0020751021301460325
-0.004839583910712496,-0.002471258527986742,-0.004843739720234772
-0.00559096185284023,-0.003874430743030062,-0.005691394171275856
-0.003756889710638673,-0.00036650020542176257,0.0005504249682084968
-0.0016979958219736995,0.0038063664191660203,0.004260289253933765
-0.0037036424548973373,0.0036492949025566934,-0.001007277691821549
-0.007271208589566818,0.0011675649401293295,-0.006131734145842654
-0.00733037220705719,0.0001884858199311922,-0.004518988988991758
-0.0034551552614377717,0.0013769936289417652,-0.0016567791543075751
0.0005798034514056535,0.002293244142496172,-0.0003192464815609281
0.0013015995847882017,0.0017696724204650824,0.001838419393816379
0.00128385049954109,0.003481751951506745,0.003979572520147431
0.004455020397025072,0.008309083228633388,0.0048492439699168565
0.00787467748796862,0.010450491571740545,0.006500518874542347
0.008093582872682999,0.0070786896818603295,0.008746252744833012
0.005638292746832528,0.001733022399922906,0.007183045835120882
0.002260050188132241,-0.002329894163038348,0.00250443360534866
0.00128385049954109,-0.004235695231231513,-0.0005779462166189216
0.0026505300635687014,-0.004015795107978456,-0.0019485043874580784
0.003230333514974355,-0.0028901159056116134,-0.0018108981454059542
0.0031534208122368703,-0.0025445585690710947,3.3025498092509807e-05
0.0023961265083600985,-0.0030786017255428058,-0.00047886972234139214
-0.0012306032437997543,-0.0035445805581504754,-0.005449207185264118
-0.00620034711299107,-0.0038325450052675747,-0.009346215960180275
-0.005697456364322901,-0.003523637689269232,-0.007375694573993856
0.0010886105618228596,-0.0022984798597164824,-0.0028181758372275035
0.004182867756569357,-0.0010628505957231116,0.00039630597711011765
0.0001242435967297829,-0.0010995006162652877,0.002708090843585804
-0.0013785122875256863,-0.0017487295515838386,0.004392391246303804
0.004449104035276034,-0.0006387575008779291,0.00500886721069732
0.010294469443324867,0.0017644367032447713,0.0056528644235012615
0.010294469443324867,0.00345557336540519,0.006236314889802268
0.006797899649643835,0.0030367159877803186,0.004981345962286896
0.00263278097832159,-0.0005811646114545092,0.0022952721174294313
-0.0014968395225064318,-0.004905867035431308,6.054674650293464e-05
-0.003064675386001311,-0.005591745991292035,-0.0009687479440469543
-0.0015027558842554691,-0.0025497942862914057,-0.0014035836689316667
-0.0007336288568806227,-0.001136150636807464,-0.0015907281581225557
-0.002721526404557149,-0.004649316891636074,-0.0010403031899140589
-0.0039757950953530526,-0.008340497531955255,-3.3025498092509807e-05
-0.00430711135329914,-0.007738390051619502,-0.0006439972128039412
-0.0071114668223428105,-0.00649752507040582,-0.0035887707927193986
-0.007478281250783122,-0.007220054046808724,-0.004067640515060791
-0.0014968395225064318,-0.005534153101868615,0.0005559292178905817
0.002449373764101434,-0.0015183579938901593,0.004150204260292065
-0.00015974176722400658,-0.00014136436494839415,0.0031043968206959215
-0.0014080940962708727,-0.00021466440603274667,0.0034346518016210195
0.0029640972362676775,0.003005301684458453,0.009648949692694949
0.0069753905021149535,0.009241040893848728,0.015659590345531733
0.006862979628883245,0.011900785241766663,0.013606505214114039
0.00417695139482032,0.007429482735621159,0.007205062833849222
0.00011241087323170833,0.0015183579938901593,0.0037704110322282027
-0.002325130167371651,0.0,0.0022127083721981567
-0.0018932357596919296,0.0005026288531498459,0.0006495014624860262
-0.004040875074592463,-0.0017958510065666368,3.3025498092509807e-05
-0.008773964473822287,-0.0030890731599834275,0.0006054674650293465
-0.007537444868273495,0.0017225509654822842,0.0023117848664756862
-0.0018459048656996315,0.005507974515767061,0.0031539350678346863
-0.0012306032437997543,0.0023403655974789696,0.0015742154090763007
-0.0038574678603723067,-0.0010576148785028006,-0.0006219802140756013
-0.002159472038398607,0.00047121454982798047,-0.00012659774268795426
0.0032599153237195416,0.004822095559906333,0.004755671725321412
0.00665590696766694,0.009534241058186139,0.009478317952550315
0.004993409316187465,0.011403392105837127,0.008691210248012164
0.0003017344492009013,0.008235783187549037,0.004194238257748745
-0.001561919501745842,0.005691224618477942,0.0022567423696548366
0.0031356717269897584,0.011214906285905936,0.0077995217995143985
0.008336153704393529,0.017948038631225745,0.01428352792501049
0.006028772622268989,0.012900807230846044,0.010672740133562751
-0.0008223742831161819,0.0010209648579606243,0.0014366091670241765
-0.005632376385083491,-0.005774996094002917,-0.0030548585735571568
-0.006300925262724704,-0.006874496710268204,-0.002542963353123255
-0.0032599153237195416,-0.0036074091647942063,-0.0014971559135271112
0.00028398536395378947,0.0022670655563946174,-0.001546694160665876
0.003330911664707989,0.006329982119355871,-0.0009907649427752941
0.00789834293496477,0.008424269007480228,0.0007485779567635556
0.01067903295701229,0.009738434029778264,0.0015742154090763007
0.010081480420359525,0.010099698517979715,0.0007871077045381504
0.011294334578912168,0.010272477186249974,-0.0005173994701159869
0.01263734869594363,0.009314340934933081,-0.002708090843585804
0.009294604307737568,0.005884946155629445,-0.005383156189079098
0.0043130277150481774,0.0021832940808696427,-0.0032695243111584707
0.0011477741793132323,0.0003350859020998972,0.007216071333213392
-0.002129890229653421,-0.0018010867237869476,0.017360403497295986
-0.010803276553742074,-0.007298589805113387,0.015285301367149954
-0.022476258284592626,-0.013665221945011434,0.004073144764742876
-0.024032261424589432,-0.01306311446467568,-0.002575988851215765
-0.011891887115564933,-0.002565501437952338,0.001876949141590974
2.366544699614912e-05,0.00737712556341805,0.00945079670413989
0.0018222394187034823,0.00673313234531981,0.011157114105586228
3.5498170494223684e-05,0.002785401561205396,0.008482048760092935
0.0012956832230391643,0.0037801878330644655,0.004117178762199555
0.0027806900220475215,0.004455595354484571,-0.0005394164688443268
-7.099634098844737e-05,-0.0011832720917902622,-0.004293314752026275
-0.006324590709720853,-0.010272477186249974,-0.008916884484977647
-0.007513779421277346,-0.012618078500949256,-0.011239677850817503
0.001201021435054568,-0.0028796444711709918,-0.00508592670624651
0.011992465265298567,0.008209604601447483,0.0047061334781826475
0.015068973374797952,0.007921640154330382,0.007661915557462274
0.009797495056405736,-0.0005183360048107785,0.004155708509974151
0.001899152121440967,-0.006806432386404162,0.0003852974777459477
-0.003543900687673331,-0.007476604190603957,-0.0027686375900887387
-0.005413471000369111,-0.004811624125465712,-0.003957555521419092
-0.005431220085616223,-0.0036335877508957607,-0.002344810364568196
-0.003165253535734945,-0.0046388454571954525,-0.0007265609580352157
0.0010708614765757478,-0.0036021734475738952,0.0021301446269668825
0.0014435922667650964,-0.002968651663916277,0.00674821011023617
-0.0036444788374069646,-0.005769760376782606,0.007496788066999726
-0.007235710419072594,-0.007895461568228828,0.003225490313701791
-0.004614762164249078,-0.008010647347075668,0.001194422181012438
0.0018459048656996315,-0.006795960951963541,0.004843739720234772
0.005661958193828677,-0.0037906592675050876,0.00763439430905185
0.0038515514986232693,-0.0003822073570826953,0.005702402670640026
0.0029936790450128636,0.0033875090415411485,0.004463946492170909
0.00820007738416567,0.007874518699347586,0.007414224321768451
0.014690326222859568,0.00972272687811733,0.009852606930932092
0.015441704164987302,0.00685355384138696,0.0069408588491091435
0.011400829090394839,0.003816837853606642,0.0034841900487597843
0.009306437031235642,0.00392155219801286,0.004117178762199555
0.009300520669486605,0.0035393448409301647,0.0022842636180652616
0.009371517010475052,0.0023665441835805244,-0.004662099480725967
0.011454076346136174,0.003418923344863014,-0.009258147965266915
0.013264483041341582,0.004319466706756488,-0.009026969478619347
0.011004432853209341,0.001633543772736999,-0.009131550222578961
0.005768452705311349,-0.003858723591369129,-0.012648765769431256
0.0002662362787066776,-0.007816925809924165,-0.015720137092034667
-0.004070456883337649,-0.007628439989992973,-0.013045071746541372
-0.005863114493295945,-0.004795916973804779,-0.006236314889802268
-0.0027037773193100373,-0.000544514590912333,-0.0008311417019948301
0.0025854500843292914,0.002806344430086639,0.000330254980925098
0.0029285990657734536,0.0018586796132103675,-0.002686073844857464
-0.0017453267159659976,-0.003319444717677107,-0.007496788066999726
-0.004656176696492339,-0.007895461568228828,-0.009676470941105372
-0.0015915013104910284,-0.00632474640213556,-0.006461989126767752
0.002307381082124539,-0.001188507809010573,-0.0019925383849147583
0.0011418578175641952,8.90071927452852e-05,-0.00169530890208217
-0.0009584506033440395,-0.0016649580760588643,-0.0025704846015336797
-0.0022837156351283904,-0.002570737155172649,7.705949554918954e-05
-0.0076735211885013525,-0.00585353185230758,0.0028842268334125227
-0.013720042896017453,-0.012445299832678995,0.0010953456867349085
-0.013649046555029005,-0.015204522807782837,-0.0013100114243362222
-0.011341665472904466,-0.012701849976474229,-0.0008696714497694249
-0.012844421357159935,-0.012303935467730601,-0.0034951985481239544
-0.013903450110237608,-0.0139374792404676,-0.008063725784254478
-0.00820007738416567,-0.011042127617635676,-0.005058405457836085
0.0009939487738382631,-0.004188573776248716,0.00503088420942566
0.006224012559987219,0.0025602657207320274,0.01437159591992385
0.007377703101049488,0.007874518699347586,0.018378689688481706
0.009696916906672102,0.010811756059941996,0.018455749184030895
0.011755810795337076,0.01076987032217951,0.018345664190389195
0.01026488763457968,0.011497635015802725,0.019793281856777544
0.009673251459675953,0.015680973074831128,0.020211604832616
0.011412661813892914,0.016963723793807298,0.015263284368421615
0.011010349214958378,0.01335107891179278,0.00838847651549749
0.0077445175294897995,0.010434784420079612,0.004441929493442569
0.0036148970286617784,0.007162461157385304,0.0010843371873707386
0.00019523993771823026,0.0020052796953790725,-0.004618065483269288
-0.0019701484624294143,-0.002078579736463425,-0.01160295832983511
-0.004165118671322245,-0.005104824289803122,-0.016545774544347414
-0.007419117633292749,-0.007073453964640018,-0.018202553698654988
-0.009519426054200983,-0.006235739209390275,-0.015692615843624243
-0.007478281250783122,-0.0030733660083224947,-0.009368232958908615
-0.0028339372777888574,-0.0006178146319966855,-0.005427190186535778
0.00013015995847882016,-0.0029791230983568988,-0.005344626441304503
-0.00018340721422015568,-0.00807871167093971,-0.0033080540589330654
-0.0015441704164987301,-0.007937347305991316,0.0004238272255205425
-0.0030942571947464976,-0.003968673652995658,0.00015962324078046405
-0.005401638276871037,-0.0032304375249318216,-0.0034676772997135293
-0.005413471000369111,-0.0020262225642603163,-0.0034896942984418695
-0.003508402517179107,0.00263356576181638,-7.705949554918954e-05
-0.0034078243674454736,0.002968651663916277,-0.000506390970751817
-0.0022659665498812784,-0.001633543772736999,-0.005047396958471915
0.0009880324120892258,-0.0020052796953790725,-0.00838847651549749
-9.466178798459649e-05,6.282860664373074e-05,-0.008548099756277955
-0.0068097323731419095,-0.003858723591369129,-0.00508592670624651
-0.012625515972445557,-0.010864113232145105,0.00039630597711011765
-0.014323511794419255,-0.01469665823741268,0.0005394164688443268
-0.015128136992288327,-0.015958466087507606,-0.008382972265815405
-0.016435652938825564,-0.015832808874220144,-0.016958593270503784
-0.014767238925597052,-0.013251600284606873,-0.016083417571052274
-0.009631836927432693,-0.009796026919201683,-0.011261694849545843
-0.005389805553372962,-0.007565611383349242,-0.009577394446827843
-0.0033368280264570263,-0.005450381626343641,-0.007865572795699419
-0.0009407015180969276,-0.0030471874222209403,-0.004304323251390445
0.0009229524328498158,-0.0003822073570826953,-0.002526450604077
-9.466178798459649e-05,0.002015751129819694,-0.0022402296206085817
-0.000780959750872921,0.0022880084252758608,-0.0006660142115322811
-8.874542623555921e-05,0.0009476648168762719,0.0007705949554918954
-0.0034729043466848837,-0.0015654794488729573,-0.00045134847393096735
-0.009631836927432693,-0.003822073570826953,-0.0027961588384991633
-0.010596203892525769,-0.0018482081787697456,-0.002691578094539549
-0.006117518048504548,0.003183316069949024,0.0020090511339610133
-0.0018281557804525196,0.007366654128977428,0.008812303741018032
0.0019938139094255636,0.009288162348831527,0.010722278380701517
0.005318809212384515,0.006597003697591727,0.004948320464194386
0.0027747736602984846,0.0010157291407403134,-0.0014971559135271112
-0.004194700480067432,-0.0011570935056887076,-0.0022127083721981567
-0.006691405138161164,-0.0004607431153873587,-0.001524677161937536
-0.004656176696492339,-0.0025183799829695402,-0.005658368673183346
-0.003898882392615568,-0.007419011301180537,-0.010854380373071557
-0.003035093577256125,-0.008382383269717741,-0.009907649427752942
0.0017689921629621469,-0.0007015861075216598,-0.0031814563162451113
0.006780150564396723,0.00801588306429598,0.0028016630881812486
0.0071114668223428105,0.007366654128977428,0.0035722580436731437
0.005744787258315199,0.0007120575419622816,0.0016017366574867255
0.004395856779534699,-0.002612622892935136,0.00029722948283258824
0.000485141663421057,-0.0019581582403962743,-0.0004623569732951373
-0.0046798421434884885,-0.0027435158234429087,-0.003203473314973451
-0.006661823329415978,-0.005178124330887475,-0.007172037335756712
-0.004265696821055879,-0.004811624125465712,-0.006935354599427059
-0.0017157449072208112,-0.002863937319510059,-0.00507491820688234
-0.001307515946537239,-0.003596937730353584,-0.008091247032664901
-0.0013607632022785744,-0.00749231134226489,-0.013848692200125778
-0.002402042870109136,-0.012204456840544695,-0.017558556485851046
-0.004597013079001967,-0.013628571924469257,-0.0177952392221807
-0.004780420293222122,-0.010942648990449768,-0.01587976033281513
-0.0023961265083600985,-0.007942583023211627,-0.013303771481599367
0.0002129890229653421,-0.004607431153873587,-0.009159071470989386
0.0029463481510205655,0.002036693998700938,-0.0026970823442216342
0.005395721915122,0.0093719338243565,0.003043850074192987
0.00678606692614576,0.012429592681018063,0.003550241044944804
0.00833023734264449,0.011926963827868217,-0.0002036572382371438
0.009620004203934617,0.012052621041155679,-0.0022897678677473465
0.00841898276888005,0.013654750510570812,-0.0007485779567635556
0.0033900752821983617,0.013188771677963142,-0.0001871444891908889
-0.003425573452692585,0.007706975748297636,-0.0037869237812744577
-0.007567026677018682,-0.0007225289764029034,-0.008195827776624516
-0.008756215388575175,-0.007366654128977428,-0.009830589932203752
-0.009738331438915363,-0.008905954991748831,-0.008245366023763282
-0.00691622688462458,-0.0044451239200439495,-0.003407130553210595
0.002407959231858173,0.0023089512941571045,0.002020059633325183
0.009052033476027038,0.005701696052918564,0.004007093768557856
0.007425033995041787,0.005507974515767061,0.0047061334781826475
0.002159472038398607,0.004188573776248716,0.007562839063184745
-0.0034019080056964363,0.0035864662959129625,0.009456300953821974
-0.006348256156717001,0.005596981708512346,0.008691210248012164
-0.005058489295426875,0.007769804354941367,0.008217844775352857
-0.00208847569741016,0.008869304971206655,0.011030516362898275
0.0005383889191623925,0.012550014177085213,0.015109165377323236
0.0002129890229653421,0.014968915532868847,0.012307502289141988
-0.004585180355503892,0.010293420055131218,0.0034731815493956146
-0.009099364370019337,0.0024031942041227005,-0.0033135583086151502
-0.009785662332907662,-0.004267109534553379,-0.007650907058098105
-0.00922360796674912,-0.007706975748297636,-0.010447065896597269
-0.009998651355873004,-0.007570847100569553,-0.011239677850817503
-0.010667200233514217,-0.006581296545930794,-0.010601184887695647
-0.006661823329415978,-0.0034293947793036356,-0.006335391384079798
0.001201021435054568,0.002670215782358556,0.00014861474141629412
0.004070456883337649,0.005591745991292035,0.0023117848664756862
0.0017334939924679232,0.004356116727298664,0.002856705585002098
0.0018695703126957806,0.0030524231394412514,0.007221575582895478
0.0035971479434146665,0.0013194007395183453,0.00925264371558483
0.0038278860516271205,0.0007591789969450797,0.006043666150929294
0.0019938139094255636,0.0026911586512398,0.002014555383643098
-0.0015264213312516184,0.0014188793667042523,-0.000671518461214366
-0.0038397187751251947,-0.005220010068649961,-0.0018934618906372288
-0.0041414532243260966,-0.00889548355730821,-0.003886000275551987
-0.002047061165166899,-0.003261851828253687,-0.003957555521419092
0.0009111197093517411,0.004068152280181565,0.0015852239084404706
0.0021417229531514956,0.0046440811744157635,0.007320652077173006
0.0038101369663800086,0.0010628505957231116,0.008867346237838882
0.004011293265847276,-0.002612622892935136,0.007898598293791928
0.00013015995847882016,-0.003911080763572238,0.00835545101740498
-0.0023606283378658746,-0.0022408869702930626,0.011025012113216189
-0.0007158797716335109,-0.0018534438959900566,0.011256190599863759
0.0028161881925417454,-0.0028953516228319245,0.009637941193330777
0.0058749472167940195,-0.0009843148374184482,0.009368232958908615
0.0064429179447015985,0.0037068877919801133,0.008982935481162666
0.0056442091085815655,0.007277646936232143,0.008773773993243437
0.0047449221227278985,0.006230503492169965,0.009263652214949
0.004632511249496191,0.003324680434897418,0.009979204673620045
0.007123299545840885,0.005225245785870272,0.01104702911194453
0.010105145867355675,0.009460941017101786,0.009726009188244138
0.008738466303328063,0.008330026097514633,0.005185003200524039
0.004360358609040476,0.003816837853606642,0.0014861474141629413
0.0037095588166463746,0.00292676592615379,-2.201699872833987e-05
0.006348256156717001,0.004282816686214311,-0.0013980794192495817
0.007596608485763868,0.0027487515406632193,-0.002185187123787732
0.006922143246373618,0.0007277646936232143,-0.0013320284230645622
0.0037923878811328966,0.0027016300856804215,-0.0015962324078046405
0.000337232619695125,0.006136260582204368,-0.00422175950615917
0.002449373764101434,0.006628418000913592,-0.004953824713876471
0.008815379006065547,0.0055655674051904806,-0.0009467309453186144
0.010803276553742074,0.007167696874605614,0.005157481952113615
0.0050762383806739865,0.008617990544631733,0.009059994976711856
-0.003035093577256125,0.004293288120654933,0.009181088469717725
-0.006271343453979517,-0.002371779900800835,0.006698671863097405
-0.0013370977552824253,-0.004235695231231513,0.003930034273008667
0.007567026677018682,0.0011309149195871532,0.005124456454021105
0.013081075827121426,0.009555183927067381,0.01000672592203047
0.013873868301492422,0.013728050551655165,0.010639714635470242
0.012542686907959033,0.011335327781973086,0.004882269468009366
0.009933571376633593,0.0061572034510856116,2.7521248410424835e-05
0.007963422914204179,0.003947730784114414,0.0003247507312430131
0.00835390278964064,0.005288074392514003,0.0022787593683831764
0.008631971791845392,0.0055603316879701695,0.0014971559135271112
0.008726633579829989,0.005314252978615558,0.0007265609580352157
0.009075698923023187,0.005785467528443538,0.004529997488355928
0.0042775295445539535,0.0031937875043896455,0.010551646640556883
-0.0033486607499551005,-0.0018743867648713002,0.014322057672785085
-0.004602929440751004,-0.006052489106679394,0.011982751557898973
-0.0020588938886649736,-0.00889548355730821,0.0033190625582972355
-0.0029226827040244163,-0.009392876693237745,-0.004397895495985889
-0.0031120062799936095,-0.007052511095758774,-0.004953824713876471
0.003656311560905039,-0.0035341091237098537,-0.0010458074395961437
0.01057253844552962,0.0006754075214201054,0.001018286191185719
0.007620273932760017,0.0026911586512398,0.00017613598982671897
-0.0005265561956643179,-0.0007277646936232143,-0.0006825269605785359
-0.004934245698697092,-0.005225245785870272,-0.0020530851314176928
-0.006886645075879394,-0.007366654128977428,-0.005581309177634157
-0.0077445175294897995,-0.008424269007480228,-0.008140785279803667
-0.0058098672375546095,-0.007523725645586755,-0.007122499088617948
-0.003999460542349202,-0.004696438346618872,-0.00506390970751817
-0.003934380563109792,-0.0029791230983568988,-0.004618065483269288
-0.0017571594394640722,-0.0018743867648713002,-0.0036273005404939937
0.0025085373815918067,0.0015288294283307812,0.00036328047901760787
0.0044786858440212214,0.004219988079570581,0.0029777990780079674
0.003940296924858829,0.0024869656796476748,-0.000165127490462549
0.0032539989619705043,-0.0004659788326076696,-0.003902513024598242
0.0034374061761906598,-0.0007853575830466342,-0.0018714448919088889
0.003419657090943548,-0.0004345645292858042,0.0018494278931805491
0.0009761996885911513,-0.0030471874222209403,0.0002862209834684183
-0.0006448834306450635,-0.005141474310345298,-0.002878722583730438
0.002449373764101434,-0.0019581582403962743,-0.0008861841988156798
0.002970013598016715,0.00029843588155772097,0.0012769859262437124
-0.0026682791488158134,-0.003366566172659905,-0.002355818863932366
-0.0039107151161136425,-0.005424203040242086,-0.005476728433674543
0.0010649451148267105,-0.0021990012325305754,-0.0033851135544822547
0.0018636539509467433,-0.0006125789147763747,-0.0014256006676600064
-0.002745191851553298,-0.003481751951506745,-0.002355818863932366
-0.005401638276871037,-0.006602239414812037,-0.0029943118270542224
-0.004821834825465383,-0.006827375255285406,-0.0025539718524874248
-0.005017074763183613,-0.004398002465061151,-0.0028401928359558432
-0.0038101369663800086,-0.0013089293050777236,-0.0027576290907245686
0.002005646632923638,0.0014974151250089157,-0.0005614334675726666
0.005744787258315199,0.002371779900800835,0.001166900932602013
0.004040875074592463,0.0004973931359295349,0.0005284079694801569
0.002851686363035969,0.000544514590912333,0.00019815298855505883
0.003461071623186809,0.0041728666245877824,0.001376062420521242
0.004259780459306842,0.0071415182885040595,0.0024273741097994707
0.006519830647439083,0.008523747634666136,0.003186960565927196
0.00933010247823179,0.009021140770595671,0.004546510237402183
0.009205858881502008,0.006858789558607271,0.005856521661738405
0.004928329336948054,0.003696416357539491,0.004931807715148131
0.0008223742831161819,0.005120531441464055,0.0034346518016210195
-8.874542623555921e-05,0.008570869089648934,0.004122683011881641
-0.0013193486700353134,0.005617924577393589,0.0032695243111584707
-0.0034137407291945105,-0.0006073431975560637,-0.00023117848664756864
-0.00408820596858476,-0.0016597223588385535,-0.0013870709198854118
-0.00598144172827669,1.0471434440621788e-05,-0.0002531954853759085
-0.009998651355873004,-0.0020681083020228034,-0.0008586629504052549
-0.01115825825868431,-0.0055603316879701695,-0.0023007763671115166
-0.00820007738416567,-0.005083881420921878,-0.0023833401123427907
-0.007377703101049488,-0.003068130291102184,-0.0031264138194242613
-0.01026488763457968,-0.004167630907367472,-0.00500886721069732
-0.0077740993382349865,-0.004492245375026747,-0.0025814931008978498
0.002792522745545596,0.0010523791612824897,0.006274844637576863
0.009625920565683656,0.006429460746541778,0.012489142528650791
0.007336288568806228,0.006115317713323125,0.010320468153909313
0.003295413494213765,0.004586488284992344,0.007249096831305902
0.0022955483586264646,0.004555073981670478,0.008146289529485751
0.004342609523793364,0.0032461446765927543,0.007821538798242739
0.0073067067600610415,0.0018482081787697456,0.0047061334781826475
0.007271208589566818,0.0036074091647942063,0.003539232545580634
0.002970013598016715,0.004539366830009545,0.0032915413098868105
-0.0033486607499551005,0.0007068218247419707,5.504249682084967e-05
-0.010099229505606638,-0.005801174680104471,-0.006285853136941032
-0.01487964979882876,-0.012162571102782207,-0.01346339472237983
-0.012631432334194594,-0.014419165224736203,-0.016413672551977374
-0.004993409316187465,-0.011251556306448111,-0.013556966966975274
0.001331181393533388,-0.005769760376782606,-0.008377468016133321
0.0051768165304076205,0.0002827287298967883,-0.003093388321331752
0.005502216426604671,0.003267087545473998,0.0005779462166189216
-0.0011477741793132323,-0.0015131222766698485,0.0010568159389603138
-0.011193756429178534,-0.009387640976017433,-0.0006439972128039412
-0.015157718801033513,-0.011157313396482516,-0.0019044703900013987
-0.010466043934046949,-0.008670347716834842,-0.0028071673378633334
-0.0039757950953530526,-0.007649382858874216,-0.004227263755841255
-0.001372595925776649,-0.0053823173024796,-0.0047061334781826475
-0.003248082600221467,-0.00316237320106778,-0.006065683149657634
-0.008555059089107907,-0.0064242250293214676,-0.00852057850786753
-0.014495086285141337,-0.011869370938444796,-0.00848755300977502
-0.014844151628334537,-0.012811800038100759,-0.00754632631413849
-0.00672098694690635,-0.007874518699347586,-0.006390433880900647
0.0015737522252439165,-0.0032199660904912,-0.0031154053200600916
0.0005679707279075789,-0.003518401972048921,-0.0004073144764742876
-0.004265696821055879,-0.0035341091237098537,0.0008806799491335947
-0.0020825593356611225,0.0009214862307747174,0.00424377650488751
0.004342609523793364,0.0063456892710168035,0.009026969478619347
0.006868895990632283,0.008445211876361472,0.009560881697781588
0.005608710938087342,0.006434696463762089,0.0048217227215064315
0.0039107151161136425,0.003476516234286434,0.0010678244383244837
0.0028221045542907827,0.0024450799418851876,-0.00041281872615637257
0.0035202352406771818,0.003942495066894103,-0.0024163656104353006
0.0060465217075161,0.007277646936232143,-0.0022567423696548366
0.006218096198238181,0.008057768802058466,-0.0014751389147987712
0.0005502216426604671,0.0026440371962570017,-0.007001405595612078
-0.00867930268583769,-0.005497503081326439,-0.015901777331543472
-0.013950781004229907,-0.010937413273229458,-0.019127267645245263
-0.010128811314351824,-0.011199199134245002,-0.015098156877959066
-0.0014021777345218354,-0.005345667281937423,-0.007249096831305902
0.005283311041890291,0.0020628725848024923,-0.00011008499364169934
0.006360088880215076,0.004219988079570581,0.002218212621880242
0.003756889710638673,0.004115273735164363,0.0032860370602047257
0.003123839003491684,0.006937325316911935,0.007744479302693549
0.0031356717269897584,0.008638933413512975,0.009847102681250006
-2.95818087451864e-05,0.005403260171360843,0.005520762431131222
-0.0023724610613639493,0.0011570935056887076,0.0008311417019948301
-0.001242435967297829,-0.0009476648168762719,-0.0019044703900013987
-0.0016447485662323639,-0.002806344430086639,-0.0060491704006113796
-0.004094122330333798,-0.003476516234286434,-0.008883858986885138
-0.002094392059159197,0.0005497503081326439,-0.005515258181449137
0.00363264611390889,0.006288096381593384,0.0008861841988156798
0.006904394161126506,0.009199155156086242,0.004838235470552686
0.007922008381960919,0.009282926631611215,0.0048492439699168565
0.008898208070552069,0.0068169038208447845,0.0006990397096247908
0.00815866285192241,0.00386395930858944,-0.0038529747774594773
0.005727038173068087,0.004288052403434622,-0.0028181758372275035
0.003461071623186809,0.006460875049863643,0.002036572382371438
0.0008223742831161819,0.004492245375026747,0.003170447816880941
-0.0005798034514056535,-0.0005392788736920221,-0.001023790440867804
0.000970283326842114,-0.0022880084252758608,-0.0048767652183272815
0.00015974176722400658,-0.0021885297980899538,-0.005465719934310373
-0.00533064193588259,-0.004366588161739285,-0.0049648332132406405
-0.009560840586444245,-0.007769804354941367,-0.004920799215783961
-0.009815244141652848,-0.010806520342721686,-0.006181272392981418
-0.009554924224695208,-0.012958400120269463,-0.007480275317953471
-0.01146590906963425,-0.012900807230846044,-0.00587303441078466
-0.011241087323170832,-0.007958290174872559,-0.0020916148791922874
-0.005253729233145105,-0.0001884858199311922,0.0008036204535844053
0.0012601850525449407,0.0028482301678491263,0.0024493911085278104
0.003608980666912741,0.001089029181824666,0.004607056983905118
0.0022896319968774273,0.0006649360869794836,0.007122499088617948
0.0017039121837227368,0.0027958729956460175,0.009715000688879967
0.004957911145693241,0.00573834607346074,0.012390066034373261
0.0066085760736746425,0.007062982530199396,0.012301998039459902
0.003798304242881934,0.005021052814278147,0.00902146522893726
0.002407959231858173,0.002314187011377415,0.005168490451477784
0.004898747528202868,0.002727808671781976,0.0019264873887297387
0.008507728195115609,0.007277646936232143,0.0010458074395961437
0.010253054911081607,0.01117825626536376,0.0028401928359558432
0.007247543142570668,0.007099632550741573,0.0017723683976313596
0.00021890538471437936,-0.002727808671781976,-0.0047666802246855815
-0.005815783599303646,-0.010466198723401477,-0.009324198961451934
-0.005928194472535355,-0.013314428891250604,-0.00759036031159517
0.0007868761126219582,-0.011424334974718372,-0.0021631701250593924
0.007833262955725359,-0.007570847100569553,0.006054674650293464
0.00800483744644744,-0.005497503081326439,0.013144148240818903
0.0036267297521598526,-0.002790637278425707,0.0161109388194627
0.00128385049954109,0.0019110367854134765,0.01843923643498464
0.0025381191903369933,0.0011937435262308839,0.01897865290382897
0.006561245179682344,-0.0034451019309645683,0.01629808330865359
0.013649046555029005,0.0011099720507059096,0.017184267507469268
0.021239738679043836,0.013419143235656822,0.021791324491374386
0.0245351521732576,0.021827705091476118,0.02073450855241407
0.02642838793294953,0.027105308049549498,0.015043114381138216
0.032906804048145354,0.03375466891934434,0.013810162452351183
0.03488286887232381,0.03674426345214186,0.01433857042183134
0.020145211755471938,0.029419495060926913,0.00749128381731764
-0.0021417229531514956,0.015288294283307812,-0.005636351674455007
-0.013578050214040559,0.0052304815030905834,-0.014795423145444393
-0.013282232126588694,0.0029581802294756554,-0.015285301367149954
-0.012098959776781238,0.0036388234681160713,-0.012516663777061217
-0.012536770546209997,0.001392700780602698,-0.01284141450830423
-0.01707462000772159,-0.009801262636421995,-0.019617145866950823
-0.027096936810590742,-0.02640895765924815,-0.028099194627043758
-0.029108499805263418,-0.03217871803603076,-0.025336061286637106
-0.017689921629621467,-0.021058054660090416,-0.009731513437926222
-0.004863249357708644,-0.006560353677049551,0.005449207185264118
0.0028990172570282674,-0.00042409309484518244,0.010997490864805766
0.0070404704813543635,-0.001387465063382387,0.007045439593068758
0.009596338756938468,-0.002523615700189851,0.001689804652400085
0.01440042449715674,0.003267087545473998,0.005636351674455007
0.02099125148558427,0.013806586309959828,0.01580270083726594
0.020304953522695946,0.017021316683230717,0.019518069372673294
0.008276990086903155,0.0093719338243565,0.013799153952987014
-0.0045792639937548545,0.0019005653509728546,0.007293130828762582
-0.010276720358077756,0.0019215082198540982,0.005542779429859562
-0.01487964979882876,0.0015707151660932684,0.003753898283181948
-0.019050684831900044,-0.0033089732832364853,-0.001711821651128425
-0.01542395507974019,-0.005057702834820324,-0.008162802278532007
-0.007791848423482098,-0.0018743867648713002,-0.010056264169169235
-0.00443727131177796,0.002020986847040005,-0.00591706840824134
-0.007472364889034085,0.0023194227285977262,-0.004810714222142262
-0.013495221149554036,-0.002586444306833582,-0.009648949692694949
-0.01466074441411438,-0.006623182283693282,-0.013243224735096431
-0.011655232645603442,-0.009377169541576812,-0.019820803105187967
-0.014323511794419255,-0.017895681459022636,-0.03475383249268448
-0.023245385311967473,-0.02694300081571986,-0.045432076875929324
-0.02886592897355289,-0.025555535752337474,-0.04118279612135973
-0.02491379932519599,-0.016345909161810612,-0.02786801614039619
-0.014708075308106678,-0.009638955402592356,-0.01511466962700532
-0.005910445387288243,-0.008282904642531834,-0.007832547297606908
-0.000337232619695125,-0.006597003697591727,-0.0037869237812744577
0.002697860957561,-0.0024189013557836332,0.0008531587007231699
0.0025736173608312167,0.0006021074803357529,0.005328113692258249
0.0018399885039505942,0.003005301684458453,0.009803068683793327
0.0017808248864602213,0.00538755301969991,0.01349642022047234
0.002029312079919787,0.004712145498279805,0.01344137772365149
0.0032185007914762804,0.0025812085896132707,0.010678244383244837
0.004715340313982712,0.0028377587334085046,0.008019691786797798
0.005863114493295945,0.005487031646885817,0.006522535873270686
0.006437001582952561,0.0083143189458537,0.005702402670640026
0.008140913766675298,0.008518511917445825,0.004040119266650366
0.012536770546209997,0.006717425193658877,0.0020090511339610133
0.017530179862397462,0.009089205094459712,0.0016237536562150653
0.02049427709866514,0.01600035182527009,0.0027851503391349937
0.01912759753463753,0.016654816477808955,0.0035832665430373138
0.008608306344849243,0.0038377807224878853,0.00025869973505799346
-0.010282636719826793,-0.013743757703316097,-0.0076839325561906145
-0.0245351521732576,-0.022267505337982232,-0.013210199237003922
-0.02941023425446432,-0.02324658445818037,-0.016017366574867256
-0.03201343342404073,-0.02523615700189851,-0.022242672965305355
-0.027179765875077266,-0.023461248864213118,-0.02538559953377587
-0.01063761842476903,-0.012576192763186767,-0.01766313722981066
0.002384293784862024,-0.001486943690568294,-0.00766741980714436
0.0026091155313254406,0.001973865392057207,-0.0041612127596562356
0.0005857198131546908,0.0016440152071776207,-0.0036217962908119085
0.0019878975476765263,0.0018482081787697456,-0.002669561095811209
0.0007336288568806227,0.001733022399922906,-0.0029282608308692027
-0.002366544699614912,0.0010209648579606243,-0.0033245668079793203
-0.0024789555728466205,-0.0006073431975560637,-0.001711821651128425
-0.0011063596470699715,-0.0036702377714379368,0.00014861474141629412
0.0013607632022785744,-0.005005345662617215,0.0020971191288743727
0.00533064193588259,-0.0041833380590284045,0.00507491820688234
0.006472499753446785,-0.005576038839631103,0.007331660576537177
0.004117787777329947,-0.008392854704158364,0.00847654451041085
0.002887184533530193,-0.008377147552497431,0.006285853136941032
0.005579129129342155,-0.005199067199768718,0.001018286191185719
0.010667200233514217,-0.0015288294283307812,-4.403399745667974e-05
0.014382675411909629,-0.0009947862718590699,0.0019925383849147583
0.012992330400885868,-0.004612666871093898,-0.00029722948283258824
0.004555598546758706,-0.00907873366001909,-0.002862209834684183
-0.005957776281280541,-0.01252907130820397,0.0008201332026306601
-0.012418443311229252,-0.01626737340350595,0.004777688724049752
-0.015039391566052766,-0.018424488898274038,0.0015521984103479608
-0.013950781004229907,-0.014199265101483146,-0.004067640515060791
-0.009803411418154773,-0.00543991019190302,-0.0028071673378633334
-0.0073422049305552645,0.00013089293050777236,0.004425416744396313
-0.0071410486310879975,0.0028901159056116134,0.010711269881337346
-0.0021417229531514956,0.009141562266662821,0.014971559135271111
0.009111197093517412,0.016424444920115275,0.018356672689753366
0.0158381004021728,0.018262181664444398,0.01875848291654557
0.012820755910163786,0.016345909161810612,0.016204511064058146
0.008957371688042443,0.01685900944940108,0.014900003889404007
0.011211505514425646,0.02031981853202658,0.01586875183345096
0.0171870308809533,0.023031920052147624,0.016518253295936987
0.023700945166643346,0.025592185772879653,0.0173548992476139
0.02678336963789177,0.02634089333538411,0.015940307079318067
0.021500058596001476,0.018864289144780153,0.00766741980714436
0.013749624704762639,0.007822161527144477,-0.00036328047901760787
0.0114422436226381,0.0026963943684601105,-0.0015687111593942157
0.009395182457471202,0.0006335217836576182,-0.0029612863289617125
0.003106089918244572,-0.0026806872167991777,-0.006990397096247909
-0.0017394103542169605,-0.003303737566016174,-0.006296861636305203
-0.0021417229531514956,-0.00040838594318424976,-0.0012934986752899673
-0.0007691270273748464,0.001188507809010573,0.0007816034548560653
0.0017275776307188859,0.00015183579938901593,0.000335759230607183
0.003165253535734945,-0.0021675869292087104,-0.00037979322806386273
-2.366544699614912e-05,-0.0054346744746827085,-0.0030713713226034117
-0.004880998442955756,-0.008811712081783236,-0.0058785386604667455
-0.005395721915122,-0.01041907726841868,-0.006148246894888908
-0.0015500867782477674,-0.010073519931878161,-0.004397895495985889
0.0003490653431931995,-0.00960230538205018,-0.0024108613607532157
-0.0026919445958119626,-0.008869304971206655,-0.003065867072921327
-0.005922278110786317,-0.008366676118056809,-0.0065390486223169415
-0.006437001582952561,-0.009261983762729973,-0.009059994976711856
-0.005715205449570012,-0.008832654950664478,-0.008030700286161967
-0.002745191851553298,-0.004722616932720427,-0.004684116479454307
0.0006685488776412127,0.0002617858610155447,-0.0034126348028926798
-6.507997923941008e-05,0.0013298721739589672,-0.006588586869455706
-0.0012069377968036052,-0.0011047363334855988,-0.010067272668533406
0.0013252650317843507,-0.0026178586101554473,-0.008619655002145059
0.003816053328129046,-0.0004607431153873587,-0.002405357111071131
0.006016939898770914,0.004591724002212655,0.004618065483269288
0.008401233683632938,0.006214796340509031,0.007282122329398412
0.005951859919531504,0.0006492289353185509,0.004502476239945504
0.0013193486700353134,-0.005455617343563952,0.003016328825782562
0.0009939487738382631,-0.005811646114545092,0.005173994701159869
0.0025262864668389186,-0.0032199660904912,0.005047396958471915
0.004129620500828022,-0.0017225509654822842,0.002575988851215765
0.009312353392984678,0.0010680863129434225,0.003847470527777392
0.014992060672060468,0.006507996504846442,0.007265609580352157
0.01198654890354953,0.00854992622076769,0.005355634940668673
0.0018932357596919296,0.004617902588314209,0.0008696714497694249
-0.006034688984018026,0.00022513584047336845,0.0014366091670241765
-0.011530989048873659,-0.0010052577062996918,0.006027153401883039
-0.015932762190157396,-0.0011309149195871532,0.011300224597320437
-0.013299981211835806,-0.0023037155769367935,0.014256006676600066
-0.00073954521862966,0.0007591789969450797,0.01436058742055968
0.014051359153963541,0.011790835180140133,0.016006358075503085
0.018530044997984763,0.019989968347146995,0.01966668411408959
0.011554654495869808,0.017115559593196314,0.02196195623151902
0.0042775295445539535,0.011612820794649564,0.019655675614725417
0.0026268646165725526,0.010900763252687282,0.012885448505760908
0.0035320679641752564,0.010068284214657849,0.007161028836392543
0.001751243077715035,0.004900631318210997,0.00335759230607183
-0.004508267652766408,-0.0022094726669711975,-0.003952051271737007
-0.008957371688042443,-0.006183382037187166,-0.012268972541367393
-0.005082154742423023,-0.0013665221945011435,-0.013243224735096431
0.0024552901258504713,0.008225311753108415,-0.008933397234023902
0.0056442091085815655,0.011895549524546353,-0.00672619311150783
0.0023132974438735765,0.007837868678805409,-0.00755733481350266
-0.005324725574133552,5.235717220310894e-06,-0.010325972403591399
-0.011956967094804344,-0.008832654950664478,-0.01518072062319034
-0.014891482522326834,-0.014811844016259519,-0.02044278331926357
-0.0151399697157864,-0.01463906534798926,-0.022176621969120333
-0.011732145348340927,-0.009445233865440853,-0.018279613194204177
-0.004620678525998116,-0.0031100160288646712,-0.012169896047089863
0.0011063596470699715,0.0019476868059556526,-0.006924346100062889
0.0020588938886649736,0.005659810315156077,-0.002829184336591673
0.0017453267159659976,0.008094418822600643,-0.0017778726473134444
0.003147504450487833,0.00825149033920997,-0.0032915413098868105
0.0038042206046309712,0.00655511795982924,-0.003192464815609281
0.0033072462177118397,0.005717403204579497,-0.001007277691821549
0.0036208133904108157,0.004701674063839183,-0.0022292211212444116
0.0031711698974839823,0.0021832940808696427,-0.005812487664281726
0.0015796685869929538,0.00286917303673037,-0.002036572382371438
0.0009052033476027039,0.0070106253579962875,0.007221575582895478
-0.0011536905410622696,0.007324768391214941,0.008261878772809535
-0.00826515736340508,0.000445035963726426,-0.0018494278931805491
-0.015193216971527736,-0.009089205094459712,-0.010683748632926923
-0.012950915868642606,-0.012926985816947598,-0.008537091256913784
-0.004969743869191316,-0.008518511917445825,-0.0008861841988156798
-0.002307381082124539,-0.0037278306608613566,0.0012164391797407777
-0.004496434929268333,-0.0027435158234429087,-0.00036328047901760787
-0.005306976488886441,-0.0012775150017558582,0.0017008131517642548
-0.004431354950028923,0.0009214862307747174,0.004612561233587203
-0.0010649451148267105,0.0020681083020228034,0.0056528644235012615
0.0031415880887387957,0.002785401561205396,0.005333617941940334
0.0026091155313254406,0.0016178366210760663,0.003253011562112216
-0.0022718829116303157,-0.0015864223177542009,0.000836645951676915
-0.006667739691165015,-0.004319466706756488,-0.000836645951676915
-0.008058084702188776,-0.006633653718133903,-0.0017778726473134444
-0.00652574700918812,-0.008277668925311524,-0.0020090511339610133
-0.003478820708433921,-0.006314274967694939,-0.0008421502013590001
-0.0013666795640276117,-0.002335129880258659,0.0013155156740183073
-0.0013666795640276117,-0.0016544866416182426,0.0026475440970828695
-0.002999595406761901,-0.004021030825198767,0.0020916148791922874
-0.005685623640824826,-0.004528895395568924,-5.504249682084967e-05
-0.00578620179055846,-0.0011570935056887076,-0.0014531219160704315
-0.001159606902811307,0.0036074091647942063,-0.0009247139465902746
0.003508402517179107,0.006890203861929137,0.0007210567083531307
0.0066440742441688655,0.009288162348831527,0.005091430955928595
0.010087396782108562,0.011089249072618474,0.011245182100499589
0.009726498715417288,0.00995309843581101,0.01110207160876538
0.003052842662503237,0.006539410808168307,0.003952051271737007
-0.002786606383796559,0.004429416768383016,0.0002697082344221634
-0.0015974176722400658,0.005099588572582811,0.00247140810725615
0.002845770001286932,0.006199089188848099,0.0036052835417656535
0.0045792639937548545,0.005869239003968512,0.0026640568461291244
0.003733224263642524,0.005895417590070067,0.002344810364568196
0.003147504450487833,0.005911124741731,0.0012879944256078825
0.003017344492009013,0.004193809493469027,-1.1008499364169936e-05
0.0016624976514794758,0.002685922934019489,0.0011448839338736732
-0.00027806900220475215,0.0017696724204650824,0.0028071673378633334
-0.0003253998961970504,8.90071927452852e-05,0.0020090511339610133
0.000295818087451864,-0.0010785577473840441,0.0007650907058098105
-0.0004969743869191316,-0.0008167718863684995,0.0020695978804639477
-0.00020115629946726752,-0.00030367159877803186,0.0042492807545695946
0.001289766861290127,-0.0014136436494839415,0.004254785004251679
0.0008697051771084802,-0.003418923344863014,0.0029007395824587777
-0.0012542686907959033,-0.005178124330887475,-6.054674650293464e-05
-0.0038752169456194186,-0.008989726467273805,-0.005493241182720797
-0.005431220085616223,-0.011968849565630704,-0.00841049351422583
-0.0040467914363414995,-0.008392854704158364,-0.006390433880900647
-0.0009998651355873005,-0.001036672009621557,-0.0026970823442216342
0.0020825593356611225,0.003963437935775347,0.0010403031899140589
0.004366274970789513,0.0023822513352414567,0.0017283344001746798
0.0027156100428081115,-0.006193853471627788,-0.004898782217055621
-0.0018222394187034823,-0.012890335796405422,-0.013215703486686006
-0.0034669879849358464,-0.010618034522790493,-0.013061584495587628
-0.0025617846373331425,-0.007748861486060124,-0.0070509438427508436
-0.002319213805622614,-0.010387662965096814,-0.004353861498529209
-0.00031948353444801315,-0.008293376076972456,-0.004717141977546817
0.005271478318392217,0.001036672009621557,-0.0038199492793669675
0.009850742312147071,0.005083881420921878,-0.0029282608308692027
0.009519426054200983,0.0018848581993119219,-0.003192464815609281
0.005105820189419173,-0.0011152077679262204,-0.001998042634596843
-0.0013193486700353134,-0.002612622892935136,0.0007871077045381504
-0.004520100376264482,-0.0028168158645272613,0.002713595093267889
0.00018932357596919297,-0.00041885737762487155,0.003919025773644497
0.007235710419072594,0.002712101520121043,0.004552014487084268
0.00883312809131266,0.003324680434897418,0.0031539350678346863
0.006454750668199673,0.00298435881557721,0.0029833033276900523
0.0034492388996887344,0.0033508590209989724,0.006197785142027673
-0.0006685488776412127,0.0010995006162652877,0.006902329101334549
-0.0050762383806739865,-0.003303737566016174,0.0025704846015336797
-0.008010753808196477,-0.006670303738676079,-0.0035722580436731437
-0.007892426573215731,-0.01001592704245474,-0.00842150201359
-0.004703507590484638,-0.010471434440621789,-0.007364686074629687
-0.0014435922667650964,-0.004021030825198767,0.0007155524586710457
0.003330911664707989,0.004502716809467369,0.009753530436654563
0.009827076865150922,0.009439998148220542,0.013540454217929019
0.011217421876174683,0.009167740852764375,0.013094609993680138
0.006821565096639984,0.004350881010078353,0.01087089312211781
0.0026209482548235153,-5.235717220310894e-06,0.0051354649533852745
0.0019878975476765263,4.188573776248715e-05,-0.0010733286880065687
0.002680111872313888,0.0014660008216870503,-0.001678796153035915
-0.0013903450110237608,-0.0013979364978230087,0.0006439972128039412
-0.008560975450856944,-0.0077331543343991905,-0.0002366827363296536
-0.009105280731768374,-0.009497591037643962,-0.0019650171365043333
-0.003543900687673331,-0.0032880304143552415,0.00030273373251467323
0.0011063596470699715,0.005722638921799808,0.007326156326855092
0.0036858933696502258,0.009099676528900334,0.013920247445992882
-5.91636174903728e-06,0.0023403655974789696,0.008460031761364594
-0.009856658673896108,-0.005937303327832554,-0.005636351674455007
-0.01368454472552323,-0.005251424371971827,-0.010342485152637654
-0.008247408278157968,7.330004108435252e-05,-0.004287810502344189
-0.0016329158427342894,0.002178058363649332,-0.000671518461214366
0.0031120062799936095,0.0030786017255428058,-0.0024273741097994707
0.007336288568806228,0.0070158610752165985,-4.9538247138764706e-05
0.008856793538308809,0.011256792023668423,0.00755733481350266
0.0057802854288094225,0.01193743526230884,0.009643445443012863
0.002342879252618763,0.009534241058186139,0.004948320464194386
0.0025558682755841052,0.005638867446274833,0.0010953456867349085
0.004401773141283737,0.003303737566016174,0.0006274844637576863
0.006235845283485294,0.0047645026704829134,0.003577762293355229
0.00817641193716952,0.006398046443219913,0.007425232821132621
0.005999190813523802,0.0023613084663602134,0.005256558446391144
-0.0022304683793870545,-0.006953032468572868,-0.0030108245761004773
-0.00896328804979148,-0.013324900325691226,-0.008768269743561354
-0.008205993745914708,-0.011586642208548008,-0.00844351901231834
-0.005034823848430726,-0.007869282982127274,-0.006445476377721497
-0.0032185007914762804,-0.00685355384138696,-0.0034456603009851896
-0.0010471960295795986,-0.004984402793735972,0.002157665875377307
-0.0008697051771084802,-0.0027382801062225976,0.004612561233587203
-0.00263278097832159,-0.002492201396867986,0.0012164391797407777
-0.0010235305825834495,-0.0012513364156543038,-0.00045134847393096735
0.003058759024252274,0.0030576588566615624,0.002906243832140863
0.0014021777345218354,0.005000109945396904,0.0025099378550307453
-0.007815513870478246,-0.0011518577884683967,-0.006836278105149529
-0.014501002646890374,-0.009089205094459712,-0.015433916108566249
-0.012885835889403197,-0.011403392105837127,-0.01523576312001119
-0.01002823316461819,-0.010979299010991945,-0.010821354874979046
-0.009300520669486605,-0.008885012122867587,-0.007436241320496791
-0.0067387360321534626,-0.00515194574478592,-0.005845513162374236
-0.0039757950953530526,-0.0039843808046565905,-0.004711637727864732
-0.003591231581665629,-0.0026963943684601105,-0.0007375694573993856
-0.003963962371854978,0.0014398222355854959,0.004271297753297935
-0.005803950875805572,0.0017487295515838386,0.004260289253933765
-0.008105415596181074,-0.002591680024053893,0.0018494278931805491
-0.005715205449570012,-0.003204258938830267,0.0028071673378633334
8.874542623555921e-05,0.0021466440603274666,0.0040181022679220265
0.0013844286492747237,0.005733110356240429,0.0007926119542202353
-0.00215355567664957,0.0033299161521177286,-0.0033190625582972355
-0.001709828545471774,0.002314187011377415,-0.0016127451568508954
0.003691809731399263,0.005743581790681051,0.002025563883007268
0.0057802854288094225,0.006057724823899705,-0.00022016998728339868
0.0030114281302599756,0.0029110587744928572,-0.004392391246303804
0.00017749085247111842,0.0023456013146992806,-0.004474954991535079
-0.0013903450110237608,0.0033718018898802157,-0.0022732551187010916
-0.0024967046580937325,0.002685922934019489,-9.907649427752941e-05
-0.0029285990657734536,0.0011937435262308839,0.001678796153035915
-0.002129890229653421,0.0011989792434511947,0.0023172891161577715
0.0015560031399968048,0.0035498162753707864,0.0033686008054360003
0.007430950356790824,0.006989682489115044,0.006269340387894778
0.009182193434505858,0.009523769623745517,0.007188550084802968
0.005620543661585416,0.01030389148957184,0.0039905810195116015
0.0045792639937548545,0.009277690914390905,0.001689804652400085
0.008785797197320361,0.007932111588771005,0.003566753793991059
0.01292133405989742,0.008633697696292665,0.005735428168732536
0.014477337199894224,0.009843148374184481,0.004529997488355928
0.01657764562080246,0.009125855115001889,0.0014861474141629413
0.01770767071486858,0.007612732838332041,-0.0019154788893655686
0.013128406721113725,0.00626715351271214,-0.006373921131854392
0.006685488776412126,0.003696416357539491,-0.010155340663446765
0.003052842662503237,-0.0011623292229090184,-0.011437830839372562
-0.00023073810821245394,-0.006277624947152762,-0.011938717560442295
-0.004182867756569357,-0.008523747634666136,-0.013589992465067785
-0.004733089399229824,-0.007036803944097842,-0.013045071746541372
-0.0011004432853209342,-0.004895395600990686,-0.005207020199252379
0.0007277124951315855,-0.004937281338753173,0.004662099480725967
-0.0035793988581675545,-0.006989682489115044,0.006885816352288294
-0.010850607447734372,-0.011748949442377647,0.0007210567083531307
-0.014347177241415404,-0.015440130082696827,-0.007463762568907216
-0.011099094641193939,-0.01241912124657744,-0.010727782630383601
-0.006099768963257436,-0.007178168309046236,-0.00860864650278089
-0.004230198650561655,-0.004754031236042292,-0.005157481952113615
-0.001922817568437116,-0.0020995226053446684,-0.001376062420521242
0.002336962890869726,0.00014660008216870504,0.0006329887134397713
0.0037095588166463746,-0.00158118660053389,-0.0010403031899140589
0.0015086722460045064,-0.004104802300723741,-0.0019209831390476536
-0.0009407015180969276,-0.004717381215500116,-0.0009522351950006994
-0.0015915013104910284,-0.005052467117600013,-0.0014256006676600064
-0.0007158797716335109,-0.0057592889423419835,-0.0016622834039896602
-0.000928868794598853,-0.005932067610612243,-0.0011283711848274183
-0.0030114281302599756,-0.004596959719432965,-0.002223716871562327
-0.0034965697936810325,-0.0031728446355084017,-0.0026475440970828695
-0.0012069377968036052,-0.0032304375249318216,-0.00036328047901760787
-0.0003253998961970504,-0.0032409089593724437,0.0016347621555792354
-0.0008046251978690701,-0.0018429724615494348,0.0027576290907245686
0.0017157449072208112,8.37714755249743e-05,0.003594275042401484
0.004455020397025072,0.0008534219069106757,0.0029337650805512875
0.003100173556495535,0.0006544646525388618,0.0030823798219675818
0.0010471960295795986,0.0008272433208091213,0.005311600943211993
0.0007927924743709956,0.0010104934235200026,0.008025196036479882
-0.0005147234721662434,0.0010628505957231116,0.011289216097956268
-0.002431624678854322,0.0028796444711709918,0.012979020750356353
7.099634098844737e-05,0.007591789969450796,0.010771816627840282
0.006543496094435232,0.012193985406104073,0.007243592581623817
0.010176142208344122,0.01234582120549309,0.004629073982633457
0.008844960814810733,0.00895831216395194,0.002218212621880242
0.007513779421277346,0.007455661321722713,0.0006550057121681111
0.00806991742568685,0.009738434029778264,0.0009026969478619347
0.005685623640824826,0.01136674208529495,0.000836645951676915
0.00028990172570282673,0.009172976569984687,0.00030823798219675817
-0.0015086722460045064,0.006094374844441881,0.0032970455595688953
-0.0011477741793132323,0.0031728446355084017,0.00919760121876398
-0.00546080189436141,-0.003324680434897418,0.01418445143073296
-0.01201021435054568,-0.011911256676207285,0.01708519101319174
-0.014471420838145187,-0.016597223588385536,0.014861474141629413
-0.01263734869594363,-0.01540348006215465,0.008080238533300732
-0.008921873517548218,-0.010586620219468629,0.0055372751801774775
-0.005230063786148956,-0.006230503492169965,0.007661915557462274
-0.0006448834306450635,-0.002020986847040005,0.006913337600698719
0.006868895990632283,0.005199067199768718,0.004920799215783961
0.011850472583321673,0.01170706370461516,0.005895051409513
0.007862844764470545,0.013262071719047495,0.00836645951676915
-0.0020233957181707497,0.011125899093160651,0.008900371735931393
-0.011542821772371734,0.006094374844441881,0.004585039985176778
-0.016678223770536092,-0.0011256792023668423,-0.004397895495985889
-0.014264348176928883,-0.005701696052918564,-0.014079870686773346
-0.006312757986222778,-0.00427234525177369,-0.018554825678308424
-2.95818087451864e-05,-0.0018639153304306783,-0.01606690482200602
0.0020174793564217124,-0.002706865802900732,-0.01007277691821549
0.0022482174646341665,-0.0035079305376082993,-0.004073144764742876
0.0011063596470699715,-0.0022513584047336847,-0.000671518461214366
0.0005265561956643179,-0.00041362166040456066,0.0011063541860990784
0.0034374061761906598,0.002235651253072752,0.004447433743124654
0.005567296405844081,0.004994874228176593,0.007337164826219262
0.0026682791488158134,0.004021030825198767,0.00672619311150783
-0.0002129890229653421,0.000895307644673163,0.005427190186535778
0.000970283326842114,0.0019215082198540982,0.007287626579080497
0.0031415880887387957,0.0053613744335983555,0.010012230171712556
0.0038693005838703813,0.005099588572582811,0.008382972265815405
0.0018518212274486686,0.001780143854905704,0.004117178762199555
-0.003490653431931995,-0.0019476868059556526,0.0018494278931805491
-0.006052438069265137,-0.0038377807224878853,0.0013045071746541372
-0.00018340721422015568,0.0007487075625044579,0.0026475440970828695
0.007572943038767719,0.008073475953719399,0.005113447954656934
0.006531663370937158,0.007591789969450796,0.0033851135544822547
-0.002194970208892831,0.0005183360048107785,-0.0020695978804639477
-0.00600510717527284,-0.0021047583225649795,-0.0032915413098868105
0.0003076508109499386,0.0029529445122553444,3.852974777459477e-05
0.005389805553372962,0.006691246607557323,-9.357224459544445e-05
0.0018399885039505942,0.00298435881557721,-0.004216255256477085
-0.0018932357596919296,-0.001534065145551092,-0.006472997626131922
0.0006922143246373618,0.00023037155769367934,-0.004441929493442569
0.005123569274666285,0.004481773940586125,0.0009577394446827843
0.0061766816659949205,0.004031502259639388,0.004959328963558556
0.0033190789412099143,-0.0004973931359295349,0.0031649435671988564
-0.0025617846373331425,-0.00485874558044851,-0.0020861106295102026
-0.01053112391328636,-0.010984534728212257,-0.007309643577808837
-0.018346637783764608,-0.0198486039821986,-0.01361751371347821
-0.021304818658283247,-0.02295338429384296,-0.018797012664320163
-0.014986144310311431,-0.014173086515381591,-0.01363953071220655
-0.0031415880887387957,-0.0007644147141653906,0.0011283711848274183
0.004934245698697092,0.00754990423168831,0.012736833764344615
0.007614357571010979,0.012152099668341585,0.018147511201834138
0.009969069547127818,0.016576280719504292,0.022033511477386126
0.014110522771453913,0.01849778893935839,0.023327010152676093
0.018086317866806964,0.01786426715570077,0.02062442355877237
0.017435518074412865,0.016078887583574758,0.01709619951255591
0.010974851044464155,0.012665199955932053,0.015428411858884163
0.0034729043466848837,0.008387618986938053,0.013606505214114039
-0.0007868761126219582,0.005748817507901362,0.010584672138649392
8.282906448652192e-05,0.00532472441305618,0.009186592719399811
0.005182732892156657,0.004691202629398561,0.008784782492607607
0.010483793019294061,0.004492245375026747,0.0071665330860746276
0.01107542919419779,0.006214796340509031,0.004425416744396313
0.005230063786148956,0.005947774762273176,-0.001172405182284098
-0.0007099634098844737,0.0011256792023668423,-0.008498561509139189
-0.0011714396263093816,-0.004298523837875244,-0.013067088745269713
-0.002467122849348546,-0.008675583434055152,-0.01756406073553313
-0.010584371169027695,-0.01505268700839382,-0.025545222774556335
-0.01835847050726268,-0.021508326341037155,-0.031429265684705165
-0.019890808200263337,-0.02466022810766431,-0.03151733367961852
-0.02006238269098542,-0.026204764687656024,-0.02889731083094608
-0.021026749656078494,-0.02611575749491074,-0.025336061286637106
-0.017370438095173454,-0.021099940397852904,-0.021213378274755463
-0.005437136447365261,-0.01024106288292811,-0.015753162590127177
0.00998681863237493,0.0016230723382963772,-0.007441745570178876
0.01960090647456051,0.007764568637721056,-0.0006495014624860262
0.018677954041710694,0.006665068021455768,-0.0016072409071688106
0.009969069547127818,0.0028534658850694374,-0.006962875847837484
0.0014968395225064318,0.0012251578295527493,-0.01023790440867804
-0.0005443052809114298,0.0003769716398623844,-0.013419360724923151
0.0003313162579460877,-0.003178080352728713,-0.019782273357413373
-0.0005857198131546908,-0.006445167898202711,-0.024972780807619496
-0.000970283326842114,-0.006481817918744887,-0.024251724099266365
-0.002011562994672675,-0.009288162348831527,-0.02197296473088319
-0.007425033995041787,-0.018293595967766266,-0.022754568185739257
-0.011667065369101517,-0.023613084663602135,-0.022451834453224583
-0.009022451667281852,-0.018361660291630305,-0.018538312929262172
-0.0046088458025000415,-0.01001592704245474,-0.014657816903392268
-0.004224282288812618,-0.005837824700646647,-0.012703808266252104
-0.006780150564396723,-0.0056231602946139,-0.0119001878126677
-0.009336018839980828,-0.006366632139898048,-0.011129592857175805
-0.009436596989714462,-0.0056231602946139,-0.008746252744833012
-0.005821699961052684,-0.0024555513763258093,-0.003660326038586503
0.00013015995847882016,0.004010559390758145,0.0019595128868222485
0.004318944076797214,0.009565655361508003,0.0030713713226034117
0.0036208133904108157,0.008042061650397534,0.00022567423696548367
0.0015974176722400658,0.0036702377714379368,-0.00021466573760131372
0.0033545771117041378,0.004539366830009545,0.002686073844857464
0.00678606692614576,0.008832654950664478,0.005179498950841954
0.008040335616941664,0.010502848743943654,0.0055097539317670524
0.009046117114278001,0.010110169952420337,0.005592317676998327
0.010495625742792135,0.01088505610102635,0.007254601080987987
0.010306302166822942,0.013885122068264491,0.009511343450642824
0.010353633060815241,0.01685900944940108,0.012335023537552411
0.008608306344849243,0.013068350181895992,0.014888995390039838
0.0007691270273748464,0.002822051581747572,0.01419545993009713
-0.006537579732686195,-0.004141452321265917,0.009439788204775718
-0.005425303723867186,-0.0046440811744157635,0.005173994701159869
-0.00020115629946726752,-0.0020524011503618707,0.006478501875814007
0.001437675905016059,0.0013036935878574126,0.010485595644371863
0.00043781076942875873,0.002591680024053893,0.011762581570615575
0.0010471960295795986,0.0009790791201981371,0.010254417157724294
0.0024967046580937325,-0.00023037155769367934,0.009065499226393941
0.003277664408966653,0.001392700780602698,0.009599411445556183
0.0032539989619705043,0.0037278306608613566,0.009808572933475411
0.0015323376930006555,0.0035917020131332736,0.008025196036479882
-0.0006567161541431381,0.0009005433618934738,0.004970337462922725
-0.0013666795640276117,-0.002324658445818037,0.0021356488766489674
-0.0012542686907959033,-0.003937259349673793,0.0005449207185264118
-0.000698130686386399,-0.003382273324320838,-0.00026420398474007845
0.001899152121440967,-0.002178058363649332,-0.00035227197965343794
0.005561380044095043,-0.0021466440603274666,-1.1008499364169936e-05
0.005549547320596969,-0.003973909370215968,-0.002201699872833987
0.0005975525366527653,-0.0066127108492526595,-0.0065665698707273665
-0.0034314898144416225,-0.006403282160440223,-0.007188550084802968
-0.00015974176722400658,-0.0017696724204650824,-0.00250443360534866
0.0059459435577824665,0.0014660008216870503,0.0011999264306945228
0.005206398339152807,-0.0013455793256199,0.00029172523315050325
0.0019583157389313397,-0.003937259349673793,6.054674650293464e-05
0.003952129648356903,0.0008481861896903649,0.004640082481997628
0.0060465217075161,0.008413797573039608,0.010039751420122981
0.005170900168658583,0.011324856347532464,0.01188917931330353
0.004810002101967309,0.009241040893848728,0.009505839200960738
0.004733089399229824,0.006738368062540121,0.005669377172547517
0.004455020397025072,0.007989704478194425,0.005366643440032843
0.00546080189436141,0.010518555895604586,0.007893094044109844
0.0064784161151958215,0.009691312574795465,0.008047213035208223
0.005034823848430726,0.007230525481249345,0.00503088420942566
0.0022304683793870545,0.007120575419622816,0.0032805328105226404
0.00128385049954109,0.00825149033920997,0.005201515949570294
0.002336962890869726,0.0069425610341322455,0.005647360173819177
0.004194700480067432,0.005973953348374731,0.0027686375900887387
0.009501676968953873,0.011518577884683967,0.004546510237402183
0.0182342269105329,0.020167982732637566,0.012346032036916582
0.022263269261627285,0.020942868881243578,0.014079870686773346
0.01757751075638976,0.01241388552935713,0.005410677437489523
0.009412931542718312,0.0028953516228319245,-0.00045134847393096735
0.0010590287530776732,-0.005424203040242086,0.003720872785089438
-0.0069103105228755434,-0.013555271883384906,0.006605099618501961
-0.012158123394271612,-0.018188881623360048,-0.0005339122191622418
-0.013329563020580993,-0.018544910394341186,-0.008850833488792627
-0.010324051252070055,-0.017476824081397765,-0.008724235746104673
-0.005768452705311349,-0.01746635264695714,-0.00426579350361585
-0.0037687224341367473,-0.01849778893935839,-0.0015521984103479608
-0.004425438588279886,-0.017534416970821184,-0.0011503881835557583
-0.00691622688462458,-0.013392964649555267,-0.0031814563162451113
-0.00987440775914322,-0.006900675296369759,-0.004772184474367666
-0.009726498715417288,-0.0005864003286748202,-0.0016457706549434052
-0.00826515736340508,0.0022513584047336847,0.0034511645506672744
-0.009146695264011635,0.0020000439781587614,0.003539232545580634
-0.007596608485763868,0.0011047363334855988,-0.0011283711848274183
-0.0007454615803786974,0.0033718018898802157,-0.001343036922428732
0.002336962890869726,0.007382361280638361,0.004040119266650366
-0.0031415880887387957,0.007963525892092871,0.005427190186535778
-0.008868626261806883,0.007162461157385304,0.002201699872833987
-0.011696647177846704,0.004078623714622187,-0.0010843371873707386
-0.014293929985674069,-0.0036702377714379368,-0.005641855924137092
-0.011365330919900616,-0.006492289353185509,-0.0071390118376642026
-0.0016624976514794758,0.0009371933824356501,-0.00025869973505799346
0.005969609004778616,0.010712277432756089,0.008250870273445366
0.0067446523939024994,0.01498462268452978,0.010336980902955569
0.002177221123645719,0.00982744122252355,0.004315331750754614
-0.004472769482272184,-0.0007277646936232143,-0.008096751282346987
-0.008779880835571324,-0.0072095826123681015,-0.020470304567673993
-0.008211910107663745,-0.007706975748297636,-0.023888443620248757
-0.0047094239522336755,-0.0059582461967137975,-0.0173548992476139
-0.0013666795640276117,-0.003466044799845812,-0.00852057850786753
0.0014021777345218354,-1.5707151660932684e-05,-0.0030988925710138367
0.004224282288812618,0.003675473488658248,-0.002185187123787732
0.006892561437628432,0.00667553945589639,-0.0018934618906372288
0.007419117633292749,0.007738390051619502,5.504249682084967e-05
0.004786336654971159,0.006125789147763746,-0.0014696346651166864
0.002419791955356248,0.004612666871093898,-0.005520762431131222
0.0010057814973363376,0.004476538223365815,-0.005685889921593771
-0.0023487956143678004,0.003026244553339697,-0.003407130553210595
-0.006123434410253585,-0.0006230503492169965,-0.0040181022679220265
-0.005519965511851782,-0.0032880304143552415,-0.00582900041332798
-0.0005857198131546908,-0.0018900939165322327,-0.0028346885862737584
0.001266101414293978,0.00030367159877803186,0.002388844362024876
-0.004431354950028923,-0.001382229346162076,0.0037759152819102876
-0.010690865680510366,-0.0038273092880472637,0.003731881284453608
-0.009868491397394184,-0.0022513584047336847,0.004926303465466046
-0.005928194472535355,0.0020628725848024923,0.005619838925408752
-0.0045792639937548545,0.005722638921799808,0.006263836138212693
-0.004159202309573208,0.005942539045052865,0.006764722859282425
-0.0030055117685109383,0.0020000439781587614,0.0054822326833566274
-0.0005383889191623925,-0.001282750718976169,0.005333617941940334
0.0033486607499551005,3.665002054217626e-05,0.007760992051739804
0.004697591228735601,0.001837736744329124,0.006594091119137791
0.0025381191903369933,0.0005706931770138874,0.0014256006676600064
0.0019938139094255636,2.6178586101554472e-05,0.0003687847286996928
0.00302326085375805,-0.0001675429510499486,0.0007155524586710457
0.0009052033476027039,-0.0049686956420750385,-0.005322609442576163
-0.0001538254054749693,-0.00779074722382261,-0.009071003476076027
0.003543900687673331,-0.0021414083431071556,-0.0029777990780079674
0.0029167663422753794,0.0020471654331415596,0.0022952721174294313
-0.005194565615654732,-0.0014712365389073613,0.002542963353123255
-0.011980632541800493,-0.0050367599659390805,0.005256558446391144
-0.013081075827121426,-0.005141474310345298,0.008614150752462973
-0.010690865680510366,-0.005335195847496801,0.006649133615958641
-0.007785932061733061,-0.005225245785870272,0.0024328783594815555
-0.005454885532612372,-0.003261851828253687,0.0013650539211570718
-0.0021180575061553464,-0.0014293508011448742,0.003093388321331752
0.0019109848449390416,-0.0011518577884683967,0.0052510541967090586
0.003821969689878083,-0.0017644367032447713,0.007381198823675941
0.003295413494213765,-0.0037487735297426004,0.008019691786797798
0.0014495086285141337,-0.009026376487815981,0.004783192973731837
0.00011241087323170833,-0.013309193174030294,0.0019319916384118235
0.0008992869858536666,-0.011581406491327698,0.0035997792920835687
0.00215355567664957,-0.010707041715535779,0.002658552596447039
0.0027806900220475215,-0.014026486433212885,-0.003049354323875072
0.0021890538471437937,-0.01305787874745537,-0.005113447954656934
0.000780959750872921,-0.0034084519104223923,-0.0012219434294228628
0.00356756613466948,0.010330070075673395,0.0034016263035285097
0.010915687426973781,0.01860250328376461,0.002713595093267889
0.014252515453430809,0.01657104500228398,-0.004634578232315543
0.00857280817435502,0.010288184337910906,-0.01261023602165666
-0.000485141663421057,0.006696482324777634,-0.013567975466339444
-0.0053424746593806645,0.005078645703701567,-0.009302181962723595
-0.0059755253665276535,0.0012146863951121275,-0.008779278242925523
-0.005904529025539206,-0.001926743937074409,-0.008757261244197184
-0.004123704139078984,0.003062894573881873,-0.0013155156740183073
0.0007632106656258092,0.011921728110647907,0.007414224321768451
0.0056442091085815655,0.014513408134701799,0.011503881835557582
0.0064133361359564114,0.009932155566929767,0.013105618493044308
0.0022008865706418684,0.0020000439781587614,0.011608462579517196
-0.002431624678854322,-0.005057702834820324,0.0064840061254960914
-0.0008815379006065548,-0.00480115269102509,0.003704360036043183
0.007655772103254241,0.0035864662959129625,0.00822334902503494
0.014678493499361492,0.00972272687811733,0.013936760195039137
0.011542821772371734,0.006240974926610586,0.010892910120846151
0.0006803816011392872,-0.00158118660053389,0.0004953824713876471
-0.00833023734264449,-0.006476582201524576,-0.008113264031393242
-0.00924727341374527,-0.005691224618477942,-0.009511343450642824
-0.0030114281302599756,4.188573776248715e-05,-0.0034401560513031048
0.005472634617859485,0.007497547059485201,0.004843739720234772
0.011436327260889063,0.012722792845355473,0.007953640790612778
0.011436327260889063,0.012508128439322726,0.00508592670624651
0.005738870896566162,0.006827375255285406,-0.0012604731771974575
-0.0025026210198427694,-0.0013194007395183453,-0.011674513575702216
-0.009815244141652848,-0.007691268596636704,-0.021472078009813458
-0.012146290670773536,-0.009282926631611215,-0.022660995941143812
-0.008034419255192627,-0.006455639332643333,-0.016336613056428185
-0.0014080940962708727,-0.0009686076857575155,-0.008784782492607607
0.0018932357596919296,0.004298523837875244,-0.004425416744396313
0.0020707266121630483,0.0063456892710168035,-0.0032640200614763855
0.0034669879849358464,0.0049686956420750385,-0.0032805328105226404
0.005230063786148956,0.0025393228518507836,-0.004524493238673843
0.0054785509796085215,0.002036693998700938,-0.006071187399339719
0.0055436309588479315,0.0035917020131332736,-0.007364686074629687
0.005821699961052684,0.003932023632453482,-0.008305912770266216
0.005508132788353708,0.001733022399922906,-0.006186776642663504
0.00408820596858476,-0.0007487075625044579,-0.0014200964179779216
0.002579533722580254,-0.0017225509654822842,0.0026200228486724444
0.0019760648241784516,-0.002230415535852441,0.005751940917778791
-0.000591636174903728,-0.005513210232987372,0.008382972265815405
-0.006306841624473741,-0.011659942249632361,0.009148062971625216
-0.010436462125301763,-0.01609459473523569,0.007595864561277255
-0.011193756429178534,-0.017398288323093102,0.004337348749482954
-0.01063761842476903,-0.016471566375098074,0.0023007763671115166
-0.008957371688042443,-0.012639021369830498,0.003671334537950673
-0.006022856260519951,-0.007675561444975771,0.004865756718963111
-0.001940566653684228,-0.004350881010078353,0.00337960930480017
0.0016329158427342894,-0.0033718018898802157,0.0007210567083531307
0.003478820708433921,-0.004110038017944052,-0.0005999632153472614
0.004880998442955756,-0.004335173858417421,0.0015797196587583856
0.005685623640824826,-0.0033456233037786613,0.004188734008066661
0.005164983806909546,-0.0022670655563946174,0.003610787791447739
0.0045437658232606315,0.0014398222355854959,0.0040181022679220265
0.004969743869191316,0.006712189476438566,0.008724235746104673
0.006105685325006474,0.007706975748297636,0.01264326151974917
0.007158797716335109,0.006754075214201054,0.01281939750957589
0.006762401479149611,0.00690591101359007,0.012395570284055347
0.005573212767593118,0.006172910602746545,0.013067088745269713
0.005301060127137403,0.004219988079570581,0.012791876261165465
0.0051472347216624335,0.0032932661315755525,0.009869119679978347
0.002697860957561,0.005476560212445195,0.006506023124224432
-0.003585315219916592,0.004555073981670478,0.0024659038575740653
-0.009412931542718312,-0.004083859431842497,-0.004001589518875771
-0.010951185597468006,-0.011235849154787179,-0.008003179037751542
-0.011016265576707415,-0.011649470815191739,-0.007210567083531307
-0.010187974931842196,-0.00983791265696417,-0.005972110905062189
-0.00841898276888005,-0.00919391943886593,-0.007705949554918955
-0.007862844764470545,-0.011754185159597958,-0.010727782630383601
-0.005437136447365261,-0.013848472047722315,-0.0075133008160459805
2.366544699614912e-05,-0.009063026508358158,0.002642039847400784
0.005093987465921098,0.0006858789558607272,0.011250686350181673
0.010483793019294061,0.010078755649098471,0.015142190875415745
0.015826267678674726,0.015916580349745118,0.014966054885589027
0.016062922148636215,0.01621501623130284,0.009946179175527536
0.009418847904467351,0.012628549935389878,0.0024603996078919805
0.0016210831192362148,0.009235805176628418,-0.0037924280309565425
-0.0013252650317843507,0.008492333331344271,-0.007430737070814706
-5.91636174903728e-06,0.009104912246120644,-0.006087700148385974
0.0014021777345218354,0.007879754416567896,-0.0007595864561277255
-0.0009939487738382631,0.003612644882014517,-0.00034126348028926795
-0.007359954015802377,-0.0025079085485289186,-0.007183045835120882
-0.012489439652217698,-0.00691114673081038,-0.011806615568072255
-0.012980497677387792,-0.006492289353185509,-0.010518621142464372
-0.01093935287396993,-0.0032566161110333764,-0.008014187537115712
-0.007176546801582221,-0.0008796004930122302,-0.005674881422229602
-0.0005206398339152806,0.001680665227719797,-0.0017558556485851046
0.0072771249513158545,0.008183426015345928,0.0045079804896275884
0.011176007343931423,0.015351122889951541,0.008751756994515098
0.007957506552455142,0.014283036577008119,0.006087700148385974
0.0021653884001476445,0.005895417590070067,0.0013485411721108171
-0.0003963962371854978,-0.00031414303321865365,-0.0009962691924573792
-0.0029936790450128636,-0.0023979584869023894,-0.00334658380670766
-0.008472230024621386,-0.0039058450463519273,-0.004425416744396313
-0.010253054911081607,-0.004345645292858042,-0.0019485043874580784
-0.007425033995041787,-0.004062916562961254,0.00029172523315050325
-0.007176546801582221,-0.0051624171792265415,-0.00029172523315050325
-0.008454480939374273,-0.00543991019190302,0.0008036204535844053
-0.005768452705311349,-0.003324680434897418,0.00506390970751817
-0.0007691270273748464,-0.0021414083431071556,0.005790470665553386
0.0018222394187034823,-0.0037278306608613566,0.0007045439593068759
0.0030114281302599756,-0.004748795518821981,-0.004051127766014536
0.007058219566601475,-0.0017749081376853932,-0.004612561233587203
0.013394642999820402,0.004089095149062808,-0.0022127083721981567
0.01598600944589873,0.007371889846197739,-0.0002807167337863333
0.008921873517548218,0.003382273324320838,-0.0034456603009851896
-0.001940566653684228,-0.003377037607100527,-0.009186592719399811
-0.00356756613466948,-0.005926831893391932,-0.008966422732116413
0.0033486607499551005,-0.00538755301969991,-0.004381382746939634
0.007182463163331258,-0.005816881831765403,-0.005300592443847824
0.00289310089527923,-0.011146841962041893,-0.014591765907207248
-0.004502351291017371,-0.020754383061312384,-0.02530854003822668
-0.007578859400516756,-0.026744043561348047,-0.029178027564732412
-0.004697591228735601,-0.026660272085823073,-0.026024092496897726
-0.0004614762164249079,-0.024105242082311358,-0.020591398060679864
0.0011004432853209342,-0.01902659637860979,-0.013661547710934889
0.0019760648241784516,-0.011644235097971429,-0.005091430955928595
0.005857198131546907,-0.005225245785870272,0.0014971559135271112
0.009259106137243343,-0.0018429724615494348,0.002542963353123255
0.007413201271543712,-0.0011256792023668423,9.907649427752941e-05
0.005117652912917247,-0.0010680863129434225,-0.0012384561784691177
0.008815379006065547,0.0017539652688041496,-0.0006329887134397713
0.012365196055487917,0.0068116681036244735,-0.000330254980925098
0.004407689503032774,0.0076703257277554605,-0.002201699872833987
-0.010909771065224744,0.0024398442246648766,-0.004750167475639327
